Time [s],Phi [rad],STIM [ ],Fsee [N],Gamma [ ],Lcerel [ ],q [ ],Lmtc [m],fisomrel [ ]
0.0,1.8,1.0,17.966573131408158,1.0128785281654173e-05,1.3793398117638713,0.005000027339907866,0.288653,0.5411393724838989
0.0005,1.79999375,1.0,18.276002522480326,0.00561928127960111,1.3793024701702845,0.012940873234732076,0.2886527375,0.541229707023981
0.001,1.799975,1.0,21.61774954965969,0.011196970863348695,1.3789383666644992,0.03560925324979275,0.28865195,0.5421100582577857
0.0015,1.79994375,1.0,31.068719807034928,0.01674337401943775,1.37804624770739,0.07060263331930727,0.2886506375,0.5442635031707994
0.002,1.7999,1.0,53.582000352289555,0.022258666239129192,1.3763681568251787,0.11471893642562841,0.2886488,0.5483004162245464
0.0025,1.79984375,1.0,97.1187055599264,0.02774302202959795,1.3739351784432652,0.16457586956481932,0.28864643749999996,0.5541214359776896
0.003,1.7997750000000001,1.0,160.95823051772908,0.03319661492164753,1.3712143413720377,0.21728145944681837,0.28864354999999997,0.5605864565042229
0.0035,1.79969375,1.0,237.68360831765654,0.03861961746930299,1.3685847257077641,0.27061388652864576,0.2886401375,0.5667898596139422
0.004,1.7996,1.0,321.46721952780405,0.044012201260592854,1.3661560805253576,0.3229167666226261,0.2886362,0.5724799894588898
0.0045000000000000005,1.7994937500000001,1.0,409.2683476897271,0.049374536922733595,1.3639228001550545,0.37303542281676616,0.2886317375,0.5776791949212509
0.005,1.799375,1.0,499.41421109414654,0.05470679411322326,1.3618583273246918,0.420248316800273,0.28862675,0.5824571139852557
0.0055,1.79924375,1.0,590.7912096453971,0.060009141567281314,1.3599388195543274,0.4641744909808639,0.2886212375,0.586875147250757
0.006,1.7991000000000001,1.0,682.5189709787317,0.06528174704106249,1.3581463990667098,0.504680690992176,0.2886152,0.5909794541949906
0.006500000000000001,1.79894375,1.0,773.8819357154234,0.07052477736773084,1.3564672420458597,0.5418014300430949,0.2886086375,0.5948058206256968
0.007,1.798775,1.0,864.2867885552456,0.07573839843814119,1.3548903792090137,0.5756773896243729,0.28860155,0.5983827128344468
0.0075,1.79859375,1.0,953.2441664139276,0.08092277521549747,1.353406764563735,0.6065104709552308,0.2885939375,0.601733605741686
0.008,1.7984,1.0,1040.3601568090091,0.08607807173683006,1.3520086212828855,0.6345325577748068,0.2885858,0.6048786050463077
0.0085,1.79819375,1.0,1125.3204152850094,0.09120445113185022,1.3506891539025265,0.6599848549239438,0.2885771375,0.6078351955839607
0.009000000000000001,1.797975,1.0,1207.881631668908,0.09630207546630437,1.3494422885003892,0.6831047625294902,0.28856795,0.6106188998967181
0.0095,1.79774375,1.0,1287.878251601968,0.10137110645030857,1.3482623084542253,0.7041179676739248,0.2885582375,0.6132441470348662
0.01,1.7975,1.0,1365.1656334179238,0.10641170400385784,1.3471444034767328,0.7232345935278236,0.288548,0.6157230967308143
0.0105,1.79724375,1.0,1439.6571431938046,0.1114240275620366,1.3460839758745915,0.7406469996926465,0.2885372375,0.6180672246263876
0.011,1.796975,1.0,1511.3167828514122,0.11640823630597082,1.3450766199891993,0.7565294566996252,0.28852595000000003,0.6202873926557072
0.0115,1.79669375,1.0,1580.1169749097662,0.1213644876440102,1.3441185312935096,0.7710389040916692,0.2885141375,0.6223929732793301
0.012,1.7964,1.0,1646.0559221151932,0.12629293803301214,1.3432061777001099,0.78431584549698,0.28850180000000003,0.6243926007285734
0.0125,1.79609375,1.0,1709.158535376295,0.1311937433084447,1.3423362121404219,0.7964856296858082,0.2884889375,0.6262943809226661
0.013000000000000001,1.7957750000000001,1.0,1769.4870178790375,0.136067059743669,1.3415052933040068,0.8076597922790617,0.28847555,0.6281062967007152
0.0135,1.79544375,1.0,1827.0813055521548,0.14091304090460774,1.3407107086522123,0.8179377053030972,0.2884616375,0.6298348629136075
0.014,1.7951000000000001,1.0,1881.989373182253,0.1457318394675443,1.3399499615138986,0.8274077243158403,0.2884472,0.6314860448555449
0.0145,1.79474375,1.0,1934.2834224037458,0.15052360810876209,1.3392205552179255,0.8361483462718353,0.2884322375,0.6330657363445229
0.015,1.794375,1.0,1984.0391424796455,0.1552884984316021,1.3385201916364624,0.8442294130610438,0.28841675,0.6345793362704488
0.0155,1.79399375,1.0,2031.3580632126839,0.16002666252286296,1.3378465031867077,0.8517130341113922,0.2884007375,0.6360323350909245
0.016,1.7936,1.0,2076.3055971576514,0.16473824923951538,1.3371976845100717,0.8586546962497985,0.2883842,0.6374289590594584
0.0165,1.7931937500000001,1.0,2118.956180645868,0.16942340714751564,1.336571981442191,0.8651038849601489,0.2883671375,0.6387732822323897
0.017,1.792775,1.0,2159.3968623575515,0.17408228481282004,1.335967639818702,0.8711047801938241,0.28834955,0.6400693399064126
0.0175,1.7923437500000001,1.0,2197.7100641604575,0.17871502935263123,1.335383069119268,0.8766969280984293,0.2883314375,0.641320781084631
0.018000000000000002,1.7919,1.0,2234.001230071437,0.18332178924065845,1.3348165477874057,0.8819157061063307,0.2883128,0.6425315029583033
0.0185,1.79144375,1.0,2268.3389260378517,0.18790270893299366,1.3342668168100151,0.8867929621120966,0.2882936375,0.6437043851393489
0.019,1.790975,1.0,2300.7967778390775,0.1924579326871133,1.333732639493355,0.8913573087972335,0.28827395,0.6448422364056068
0.0195,1.79049375,1.0,2331.455056914017,0.19698760476049387,1.3332127791436834,0.8956344892605336,0.2882537375,0.645947843798925
0.02,1.79,1.0,2360.391755457953,0.20149186825049434,1.3327060807880124,0.8996477211855667,0.288233,0.6470238004039559
0.0205,1.78949375,1.0,2387.6943273105944,0.20597086746240506,1.332211349572614,0.9034179537081518,0.2882117375,0.6480727653544084
0.021,1.788975,1.0,2413.4350695529083,0.21042474411222475,1.3317275852908064,0.9069641684261146,0.28818995000000003,0.6490969679755446
0.021500000000000002,1.78844375,1.0,2437.6755367904684,0.21485363778351052,1.331253930731357,0.9103035825208503,0.2881676375,0.650098320711178
0.022,1.7879,1.0,2460.4807730613798,0.21925768805981943,1.3307895286830322,0.9134518103949609,0.2881448,0.6510787235767137
0.0225,1.78734375,1.0,2481.9190205499035,0.22363703452470862,1.330333521934599,0.9164230350417959,0.28812143749999997,0.6520400646884048
0.023,1.786775,1.0,2502.038112124471,0.22799181547319103,1.329885274788262,0.9192302014897964,0.28809755,0.6529837547126051
0.0235,1.78619375,1.0,2520.929483623071,0.23232217014027196,1.3294437610161,0.9218850293900757,0.28807313749999996,0.6539120163506593
0.024,1.7856,1.0,2538.687506959335,0.23662823701630661,1.3290079522320561,0.9243982125076399,0.2880482,0.6548270643114448
0.0245,1.78499375,1.0,2555.330252050337,0.2409101505400215,1.3285775597706013,0.9267796533018207,0.2880227375,0.6557295510688678
0.025,1.78437908837107,1.0,2571.0741595019817,0.2451680451501431,1.3281522949662072,0.9290384106924444,0.2879969217115849,0.6566201253456994
0.025500000000000002,1.7837641982314425,1.0,2586.3371249809393,0.24940205528539786,1.3277318691533453,0.9311827833966377,0.2879710963257206,0.6574994322106332
0.026000000000000002,1.7831493080918148,1.0,2601.1565416438207,0.25361231538451223,1.3273159936664871,0.9332203840235065,0.2879452709398562,0.6583681131700261
0.0265,1.7825344179521874,1.0,2615.558254834582,0.25779895956122756,1.3269043896833104,0.9351582064679611,0.28791944555399185,0.6592267857327244
0.027,1.7819195278125597,1.0,2629.5488110157457,0.26196212059493346,1.3264969613444444,0.9370027110350793,0.2878936201681275,0.6600756831404477
0.0275,1.7813046376729322,1.0,2643.1353401098577,0.26610192988766773,1.3260936095077471,0.9387598452070122,0.28786779478226315,0.6609150441269418
0.028,1.7806897475333046,1.0,2656.329380904343,0.27021851780052264,1.3256941964611242,0.9404350860469642,0.2878419693963988,0.6617451861975212
0.0285,1.780074857393677,1.0,2669.142726484458,0.2743120146945905,1.3252985844924814,0.9420334892938271,0.28781614401053446,0.6625664251504718
0.029,1.7794599672540494,1.0,2681.5823464092314,0.27838253986458333,1.324906682347396,0.9435597295686098,0.2877903186246701,0.6633789788456896
0.029500000000000002,1.778845077114422,1.0,2693.6689109907916,0.2824302402307251,1.324518275108312,0.9450181252886388,0.2877644932388057,0.664183319900274
0.03,1.7782301869747943,1.0,2705.4133615409532,0.2864552422476962,1.3241332393830663,0.946412681194118,0.28773866785294133,0.6649797293591833
0.0305,1.7776152968351668,1.0,2716.8257370060237,0.29045767009315215,1.3237514617769528,0.9477471113673575,0.287712842467077,0.6657684661903261
0.031,1.7770004066955392,1.0,2727.916253279942,0.2944376479447483,1.3233728288952649,0.9490248635372336,0.28768701708121264,0.6665497880493423
0.0315,1.7763855165559117,1.0,2738.6952951560656,0.2983952999801401,1.322997227343296,0.9502491415104484,0.2876611916953483,0.6673239513027526
0.032,1.775770626416284,1.0,2749.17340856278,0.302330750376983,1.3226245437263398,0.9514229254526806,0.28763536630948394,0.6680912110502905
0.0325,1.7751557362766566,1.0,2759.361293085339,0.3062441233129323,1.32225466464969,0.9525489902488753,0.28760954092361957,0.6688518211464154
0.033,1.774540846137029,1.0,2769.2697947723345,0.31013554296564366,1.3218874767186397,0.9536299221452216,0.2875837155377552,0.6696060342210051
0.0335,1.7739259559974012,1.0,2778.909899226866,0.3140051335127723,1.3215228665384828,0.9546681338520091,0.2875578901518908,0.6703541016992249
0.034,1.7733110658577738,1.0,2788.292724983781,0.31785301913197384,1.3211607207145126,0.9556658782660921,0.2875320647660265,0.671096273820583
0.0345,1.772696175718146,1.0,2797.426767923832,0.32167931844185815,1.3208009505363696,0.95662526223453,0.2875062393801621,0.6718327491548526
0.035,1.7720812855785186,1.0,2806.3225668116443,0.32548415498655603,1.320443449904483,0.9575482559611271,0.2874804139942978,0.6725637608842892
0.035500000000000004,1.771466395438891,1.0,2814.9925267340222,0.329267656272805,1.3200880970032844,0.9584367033070011,0.2874545886084334,0.6732895732041326
0.036000000000000004,1.7708515052992635,1.0,2823.4438013660892,0.33302993881953086,1.3197348179843889,0.9592923343596144,0.28742876322256905,0.6740103513025821
0.0365,1.7702366151596358,1.0,2831.6836231860884,0.3367711191456591,1.3193835389994115,0.9601167716221195,0.2874029378367047,0.674726259618021
0.037,1.7696217250200084,1.0,2839.719300140375,0.34049131377011566,1.3190341861999677,0.9609115379227308,0.28737711245084036,0.6754374618486108
0.0375,1.7690068348803807,1.0,2847.5582124287885,0.3441906392118261,1.3186866857376727,0.9616780636577166,0.287351287064976,0.6761441209615366
0.038,1.7683919447407532,1.0,2855.207809411914,0.3478692119897161,1.3183409637641414,0.9624176934309192,0.28732546167911166,0.6768463992019056
0.0385,1.7677770546011256,1.0,2862.675606638044,0.35152714862271145,1.3179969464309895,0.9631316921461734,0.2872996362932473,0.6775444581012959
0.039,1.767162164461498,1.0,2869.969182992103,0.35516456562973775,1.317654559889832,0.9638212506031907,0.2872738109073829,0.6782384584859604
0.0395,1.7665472743218704,1.0,2877.0961779647746,0.3587815795297208,1.317313730292284,0.9644874906423204,0.28724798552151853,0.6789285604846802
0.04,1.765932384182243,1.0,2884.063354530954,0.3623783042336576,1.3169743920535721,0.9651314701340369,0.2872221601356542,0.6796149068312128
0.0405,1.7653174940426153,1.0,2890.875776868488,0.36595485026322777,1.3166364950444325,0.9657541878320819,0.28719633474978984,0.680297608437427
0.041,1.7647026039029878,1.0,2897.5431483249604,0.36951134183368667,1.3162999485692177,0.9663565855215935,0.2871705093639255,0.6809768575736934
0.0415,1.7640877137633602,1.0,2904.0700881411294,0.37304788834546937,1.3159647072633853,0.9669395541249686,0.28714468397806114,0.6816527543493724
0.042,1.7634728236237327,1.0,2910.461250308747,0.3765645991990111,1.3156307257623934,0.9675039358280519,0.28711885859219677,0.6823253984525026
0.0425,1.762857933484105,1.0,2916.721322280398,0.3800615837947469,1.3152979587016995,0.9680505272466867,0.2870930332063324,0.682994889153512
0.043000000000000003,1.7622430433444776,1.0,2922.855023725131,0.383538951533112,1.3149663607167617,0.9685800823564389,0.2870672078204681,0.6836613253087972
0.043500000000000004,1.76162815320485,1.0,2928.8671053297558,0.3869968118145416,1.3146358864430372,0.9690933152054444,0.2870413824346037,0.6843248053641716
0.044,1.7610132630652222,1.0,2934.7623476461035,0.3904352740394707,1.3143064905159842,0.9695909024284434,0.2870155570487393,0.6849854273581808
0.0445,1.7603983729255948,1.0,2940.545559983411,0.39385444760833466,1.3139781275710603,0.9700734855784229,0.286989731662875,0.6856432889252903
0.045,1.759783482785967,1.0,2946.22157934619,0.3972544419215685,1.313650752243723,0.9705416732907709,0.2869639062770106,0.686298487298937
0.0455,1.7591685926463396,1.0,2951.795269418853,0.4006353663796074,1.3133243191694306,0.9709960432935032,0.28693808089114625,0.6869511193144541
0.046,1.758553702506712,1.0,2957.2647743462708,0.40399729888503944,1.3129988418869856,0.9714371443123171,0.2869122555052819,0.6876011638310134
0.0465,1.7579388123670845,1.0,2962.642837680987,0.4073403899881545,1.3126742065628556,0.9718654983650906,0.28688643011941756,0.6882488537955636
0.047,1.7573239222274568,1.0,2967.932127388921,0.41066474141871134,1.3123503876491334,0.9722816015140657,0.2868606047335532,0.6888942453298346
0.0475,1.7567090320878294,1.0,2973.135181838338,0.4139704542101619,1.3120273608570596,0.972685925660727,0.28683477934768886,0.6895373918258236
0.048,1.7560941419482017,1.0,2978.2545534229052,0.4172576293959583,1.3117051018978745,0.9730789199512372,0.2868089539618245,0.690178346463124
0.0485,1.7554792518085742,1.0,2983.292808141961,0.42052636800955245,1.311383586482818,0.9734610120846703,0.2867831285759601,0.690817162210132
0.049,1.7548643616689465,1.0,2988.2525251931897,0.4237767710843965,1.3110627903231309,0.9738326095343797,0.28675730319009574,0.6914538918252165
0.0495,1.754249471529319,1.0,2993.136296579159,0.42700893965394243,1.3107426891300529,0.9741941006890215,0.2867314778042314,0.692088587857855
0.05,1.7536345813896914,1.0,2997.9467267258437,0.4302229747516423,1.3104232586148243,0.974545855919199,0.28670565241836704,0.6927213026497254
0.0505,1.753019691250064,1.0,3002.6864321158373,0.43341897741094815,1.3101044744886856,0.9748882285752072,0.28667982703250267,0.6933520883357658
0.051000000000000004,1.7524048011104363,1.0,3007.3580409329993,0.4365970486653119,1.309786312462877,0.97522155592091,0.28665400164663835,0.6939809968451937
0.051500000000000004,1.7517899109708088,1.0,3011.964192721111,0.4397572895481857,1.3094687482486385,0.9755461600083657,0.28662817626077397,0.6946080799024898
0.052000000000000005,1.7511750208311812,1.0,3016.507538055502,0.4428998010930215,1.3091517575572107,0.975862348497459,0.2866023508749096,0.6952333890283406
0.0525,1.7505601306915537,1.0,3020.990738227628,0.44602468433327136,1.3088353160998334,0.9761704154244414,0.2865765254890452,0.6958569755405485
0.053,1.749945240551926,1.0,3025.4164649427535,0.44913204030238735,1.3085193995877473,0.9764706419229884,0.2865507001031809,0.6964788905548976
0.0535,1.7493303504122983,1.0,3029.7874000304478,0.4522219700338215,1.3082039837321924,0.9767632969010921,0.2865248747173165,0.6970991849859902
0.054,1.7487154602726709,1.0,3034.1018180228602,0.4552945342266419,1.3078890823258977,0.9770486359979335,0.2864990493314522,0.6977178347720554
0.0545,1.7481005701330432,1.0,3038.3660161352914,0.4583498768261102,1.3075746400198955,0.9773269079742897,0.28647322394558783,0.698334951583647
0.055,1.7474856799934158,1.0,3042.5821067087895,0.46138809832747096,1.3072606376623175,0.9775983489420457,0.28644739855972345,0.6989505757122004
0.0555,1.746870789853788,1.0,3046.751293954348,0.46440929024565986,1.3069470639787397,0.9778631847243153,0.2864215731738591,0.6995647318712739
0.056,1.7462558997141606,1.0,3050.874786914914,0.46741354409561253,1.3066339076947384,0.978121631770844,0.28639574778799476,0.700177444680659
0.0565,1.745641009574533,1.0,3054.953799359125,0.4704009513922648,1.3063211575358895,0.9783738976238057,0.2863699224021304,0.7007887386666862
0.057,1.7450261194349055,1.0,3058.9895496788977,0.4733716036505522,1.3060088022277696,0.9786201813567861,0.286344097016266,0.7013986382625185
0.0575,1.7444112292952778,1.0,3062.9832607890426,0.4763255923854106,1.3056968304959544,0.9788606739886987,0.2863182716304017,0.702007167808443
0.058,1.7437963391556504,1.0,3066.9361600297952,0.4792630091117756,1.3053852310660203,0.9790955588742568,0.2862924462445373,0.7026143515521472
0.0585,1.7431814490160227,1.0,3070.8494790727623,0.482183945344583,1.3050739926635433,0.979325012072504,0.28626662085867294,0.7032202136489933
0.059000000000000004,1.7425665588763952,1.0,3074.724453829055,0.48508849259876835,1.3047631040140997,0.9795492026948037,0.28624079547280856,0.7038247781622802
0.059500000000000004,1.7419516687367675,1.0,3078.5623243603854,0.48797674238926747,1.3044525538432656,0.9797682932335838,0.28621497008694424,0.7044280690634995
0.06,1.74133677859714,1.0,3082.364334793078,0.49084878623101597,1.304142330876617,0.9799824398730428,0.28618914470107987,0.7050301102325844
0.0605,1.7407218884575124,1.0,3086.1317332350127,0.49370471563894963,1.30383242383973,0.9801917927829406,0.28616331931521555,0.7056309254581461
0.061,1.740106998317885,1.0,3089.8657716949606,0.4965446221280041,1.3035228214581813,0.9803964963965174,0.28613749392935117,0.7062305384377072
0.0615,1.7394921081782573,1.0,3093.567706005438,0.49936859721311516,1.3032135124575464,0.9805966896735165,0.2861116685434868,0.7068289727779253
0.062,1.7388772180386298,1.0,3097.238795747476,0.5021767324092185,1.3029044855634018,0.9807925063492109,0.2860858431576224,0.7074262519948054
0.0625,1.7382623278990021,1.0,3100.880304179247,0.5049691192312495,1.3025957295013233,0.9809840751702846,0.2860600177717581,0.7080223995139094
0.063,1.7376474377593745,1.0,3104.4925218676935,0.5077458278707666,1.3022872413178714,0.9811715189845529,0.2860341923858937,0.7086174226289252
0.0635,1.737032547619747,1.0,3108.075144996103,0.5105069235393622,1.3019790231335808,0.9813549560565401,0.28600836700002935,0.7092113188370162
0.064,1.7364176574801193,1.0,3111.6317946931504,0.5132525585671922,1.3016710436543169,0.9815345048876688,0.28598254161416503,0.7098041499378676
0.0645,1.7358027673404919,1.0,3115.1629918395106,0.5159828143543432,1.301363298039075,0.9817102759533958,0.28595671622830066,0.7103959266422566
0.065,1.7351878772008642,1.0,3118.66925897534,0.5186977723009019,1.3010557814468502,0.9818823757802169,0.2859308908424363,0.7109866596218953
0.0655,1.7345729870612367,1.0,3122.1511202749825,0.5213975138069548,1.3007484890366374,0.982050907115372,0.28590506545657196,0.7115763595095013
0.066,1.733958096921609,1.0,3125.60910152254,0.5240821202725885,1.3004414159674322,0.9822159690880788,0.2858792400707076,0.7121650368988659
0.0665,1.7333432067819816,1.0,3129.0437300886333,0.5267516730978896,1.3001345573982295,0.9823776573627818,0.2858534146848432,0.7127527023449263
0.067,1.732728316642354,1.0,3132.4555349065563,0.5294062536829448,1.2998279084880244,0.9825360642848601,0.2858275892989789,0.7133393663638292
0.0675,1.7321134265027265,1.0,3135.8450464496896,0.5320459434278405,1.2995214643958122,0.982691279019219,0.2858017639131145,0.7139250394329981
0.068,1.7314985363630988,1.0,3139.2127967094343,0.5346708237326636,1.2992152202805878,0.9828433876821588,0.28577593852725014,0.7145097319911968
0.0685,1.7308836462234714,1.0,3142.5593191732028,0.5372809759975005,1.2989091713013465,0.9829924734668911,0.28575011314138576,0.7150934544385914
0.069,1.7302687560838437,1.0,3145.885148803571,0.5398764816224377,1.2986033126170837,0.9831386167630519,0.28572428775552144,0.7156762171368118
0.0695,1.7296538659442162,1.0,3149.190822017098,0.5424574220075621,1.2982976393867942,0.9832818952705366,0.28569846236965707,0.7162580304090118
0.07,1.7290389758045885,1.0,3152.4768766646544,0.5450238785529601,1.2979921467694735,0.9834223841079618,0.28567263698379275,0.7168389045399253
0.07050000000000001,1.728424085664961,1.0,3155.74385201146,0.5475759326587184,1.2976868299241162,0.9835601559160472,0.2856468115979284,0.7174188497759257
