Time [s],Phi [rad],STIM [ ],Fsee [N],Gamma [ ],Lcerel [ ],q [ ],Lmtc [m],fisomrel [ ]
0.0,1.8,1.0,17.967314762253288,1.0000487846991495e-05,1.3793397286759188,0.005000026654361639,0.288653,0.5411395734951541
0.0005,1.79999375,1.0,18.276632364972162,0.005619153701813277,1.379302400206227,0.01294051555366145,0.2886527375,0.5412298762684795
0.001,1.799975,1.0,21.618243372378057,0.011196844001171605,1.3789383162273279,0.035608579828711746,0.28865195,0.5421101801492273
0.0015,1.79994375,1.0,31.069006014965222,0.016743247868856843,1.3780462233233108,0.07060170979189834,0.2886506375,0.5442635619610376
0.002,1.7999,1.0,53.58189347857718,0.02225854079615366,1.376368163758623,0.11471784217875675,0.2886488,0.5483003995821506
0.0025,1.79984375,1.0,97.11807078981626,0.02774289729025811,1.3739352090314083,0.16457467993584846,0.28864643749999996,0.5541213630313679
0.003,1.7997750000000001,1.0,160.95716298013355,0.033196490881996846,1.3712143813310445,0.21728023350091363,0.28864354999999997,0.5605863619037306
0.0035,1.79969375,1.0,237.6822630444269,0.03861949412541695,1.368584767145773,0.27061266837816766,0.2886401375,0.56678976220694
0.004,1.7996,1.0,321.4656954729194,0.04401207860856864,1.36615612089177,0.32291558801891324,0.2886362,0.5724798951960826
0.0045000000000000005,1.7994937500000001,1.0,409.2667014467475,0.049374414958689605,1.3639228387986628,0.37303430467373305,0.2886317375,0.5776791052318957
0.005,1.799375,1.0,499.41247551721034,0.05470667283329451,1.3618583642055635,0.420247271231711,0.28862675,0.5824570288726842
0.0055,1.79924375,1.0,590.7894185504441,0.06000902096764769,1.359938854547982,0.4641735233130073,0.2886212375,0.5868750669218323
0.006,1.7991000000000001,1.0,682.517138978531,0.06528162711790168,1.3581464323675985,0.5046798020740397,0.2886152,0.5909793781325294
0.006500000000000001,1.79894375,1.0,773.8804024438775,0.07052465811671446,1.3564672682198124,0.5418006140750635,0.2886086375,0.5948057611221438
0.007,1.798775,1.0,864.2849246771575,0.07573827985684846,1.3548904093166163,0.575676649508331,0.28860155,0.5983826446909584
0.0075,1.79859375,1.0,953.2424388160821,0.08092265730090224,1.3534067911359742,0.606509796815894,0.2885939375,0.60173354585132
0.008,1.7984,1.0,1040.3443292082636,0.0860779540958354,1.3520088543131137,0.6345320678335444,0.2885858,0.6048780819042383
0.0085,1.79819375,1.0,1125.3145374251476,0.09120433432058588,1.350689237111291,0.6599843321483977,0.2885771375,0.6078350094843772
0.009000000000000001,1.797975,1.0,1207.8995856477488,0.09630195989403535,1.3494420431796386,0.6831041087071281,0.28856795,0.6106194466149223
0.0095,1.79774375,1.0,1287.89085658668,0.1013709913720318,1.3482621416560738,0.7041174074553292,0.2885582375,0.6132445175035867
0.01,1.7975,1.0,1365.1657733276195,0.10641158931042326,1.3471444016785141,0.7232341636331434,0.288548,0.6157231007119466
0.0105,1.79724375,1.0,1439.6593821548595,0.11142391362616999,1.3460839478522635,0.7406465951155007,0.2885372375,0.6180672864763769
0.011,1.796975,1.0,1511.3222877578282,0.1164081230688932,1.3450765527443274,0.7565290681532489,0.28852595000000003,0.6202875406444244
0.0115,1.79669375,1.0,1580.1203450145845,0.1213643748194926,1.3441184910323818,0.7710385591584238,0.2885141375,0.6223930616377442
0.012,1.7964,1.0,1646.0550989240653,0.12629282546725903,1.3432061873354224,0.7843155497887145,0.28850180000000003,0.6243925796386574
0.0125,1.79609375,1.0,1709.172585025017,0.13119363204182288,1.3423360507563096,0.7964852880422886,0.2884889375,0.6262947332671347
0.013000000000000001,1.7957750000000001,1.0,1769.50614633944,0.1360669493300354,1.3415050773593165,0.8076594540374961,0.28847555,0.6281067670210692
0.0135,1.79544375,1.0,1827.0916760668647,0.140912930725557,1.3407105934374477,0.817937428869053,0.2884616375,0.6298351132637189
0.014,1.7951000000000001,1.0,1881.9926829080225,0.14573172962204808,1.3399499252837086,0.8274074966130736,0.2884472,0.6314861234043398
0.0145,1.79474375,1.0,1934.2805319966508,0.15052349852266794,1.3392205864274032,0.8361481589296402,0.2884322375,0.6330656688260482
0.015,1.794375,1.0,1984.0514115449018,0.15528839038739772,1.338520060831848,0.8442291860275958,0.28841675,0.6345796186683736
0.0155,1.79399375,1.0,2031.3725285249654,0.16002655517240602,1.3378463507740004,0.851712815175077,0.2884007375,0.6360326634843466
0.016,1.7936,1.0,2076.3142501454436,0.1647381420876217,1.337197594330664,0.8586545105042578,0.2883842,0.6374291529898373
0.0165,1.7931937500000001,1.0,2118.9612079609133,0.1694233003429736,1.336571929578642,0.8651037226895015,0.2883671375,0.6387733935577475
0.017,1.792775,1.0,2159.3982576913013,0.17408217812096682,1.33596762555937,0.8711046390186399,0.28834955,0.6400693704591804
0.0175,1.7923437500000001,1.0,2197.7252282284403,0.17871492440355854,1.3353829155100945,0.8766967582551031,0.2883314375,0.6413211096426941
0.018000000000000002,1.7919,1.0,2234.0175116498062,0.18332168500357507,1.3348163842031935,0.8819155436058113,0.2883128,0.6425318522611592
0.0185,1.79144375,1.0,2268.3487306644683,0.1879026048172701,1.3342667190493842,0.8867928256548786,0.2882936375,0.643704593545791
0.019,1.790975,1.0,2300.8000134976746,0.19245782874089734,1.3337326074593834,0.8913571965368233,0.28827395,0.6448423045866107
0.0195,1.79049375,1.0,2331.4536796922926,0.1969875009078338,1.333212792688645,0.8956343944676383,0.2882537375,0.645947815014777
0.02,1.79,1.0,2360.394932627919,0.20149176568109967,1.3327060497327194,0.8996476223293122,0.288233,0.6470238662986263
0.0205,1.78949375,1.0,2387.7039778155845,0.20597076646604762,1.3322112557845405,0.9034178470494738,0.2882117375,0.648072964062687
0.021,1.788975,1.0,2413.44292059181,0.21042464351232892,1.3317275093987457,0.9069640712954421,0.28818995000000003,0.6490971285334983
0.021500000000000002,1.78844375,1.0,2437.6777826481507,0.2148535370695948,1.331253909129974,0.9103035016805164,0.2881676375,0.650098366346017
0.022,1.7879,1.0,2460.478177412589,0.2192575873874966,1.3307895535328629,0.9134517432773452,0.2881448,0.6510786711528356
0.0225,1.78734375,1.0,2481.9126494643747,0.22363693392547898,1.3303335826651594,0.9164229786598305,0.28812143749999997,0.6520399367461744
0.023,1.786775,1.0,2502.047608423575,0.2279917156482447,1.3298851846323125,0.9192301191650893,0.28809755,0.6529839443880903
0.0235,1.78619375,1.0,2520.9576679396805,0.23232207277912112,1.3294434944448406,0.9218849188248162,0.28807313749999996,0.6539125764284832
0.024,1.7856,1.0,2538.6922967324576,0.23662814045506264,1.3290079070883207,0.9243981474216024,0.2880482,0.6548271590349584
0.0245,1.78499375,1.0,2555.302812286578,0.2409100538130235,1.3285778175483305,0.9267796450650388,0.2880227375,0.6557290108902298
0.025,1.784375,1.0,2570.8422273211227,0.24516794798995803,1.3281526208104473,0.9290384151948915,0.28799675,0.6566194434159274
0.025500000000000002,1.78374375,1.0,2585.3651043744885,0.24940195812282054,1.3277317118602485,0.9311827071497869,0.2879702375,0.6574997609730582
0.026000000000000002,1.7831000000000001,1.0,2598.922062012842,0.2536122180949383,1.3273145355799205,0.933220097154513,0.2879432,0.6583711568816994
0.0265,1.78244375,1.0,2611.562783597222,0.2577988618420033,1.326900556983654,0.9351575485846657,0.2879156375,0.6592347762875534
0.027,1.781775,1.0,2623.345211204654,0.2619620245858008,1.3264891747095573,0.9370014570121776,0.28788755,0.6600918966756129
0.0275,1.7810937500000001,1.0,2634.3061002092923,0.2661018360004712,1.3260799932105984,0.9387577418826893,0.2878589375,0.6609433610579594
0.028,1.7804,1.0,2644.482985676129,0.27021842576015476,1.3256726169397464,0.9404318615017728,0.2878298,0.6617900082130652
0.0285,1.77969375,1.0,2653.9141152882094,0.27431192353899175,1.3252666503499697,0.942028855009552,0.2878001375,0.6626326727363219
0.029,1.778975,1.0,2662.638385741651,0.2783824590111225,1.3248616978942374,0.9435533800285474,0.28776995,0.6634721850805907
0.029500000000000002,1.7782437500000001,1.0,2670.695282610202,0.28243016185068737,1.3244573640255175,0.9450097464778434,0.2877392375,0.6643093715867756
0.03,1.7775,1.0,2678.1187594744374,0.2864551589603605,1.324053308844324,0.946401953457439,0.287708,0.6651449394995061
0.0305,1.77674375,1.0,2684.9490758065813,0.29045758117874965,1.323649138765971,0.947733703936986,0.2876762375,0.6659797033674912
0.031,1.775975,1.0,2691.216491433829,0.2944375547513199,1.3232445556980021,0.9490084463339815,0.28764395,0.6668142768227079
0.0315,1.7751937500000001,1.0,2696.947459428304,0.29839520392560775,1.322839299475974,0.9502293893561652,0.2876111375,0.6676491923273675
0.032,1.7744,1.0,2702.1687241576064,0.3023306529491498,1.322433109935442,0.9513995178188228,0.2875778,0.6684849796471912
0.0325,1.77359375,1.0,2706.9072933555685,0.3062440260694825,1.322025726911963,0.9525216110097136,0.2875439375,0.6693221658380797
0.033,1.772775,1.0,2711.1904116933706,0.31013544753414235,1.321616890241093,0.9535982593362007,0.28750955,0.6701612752284718
0.0335,1.7719437500000002,1.0,2715.0448171899934,0.3140050407813552,1.3212063463081176,0.9546318799613296,0.2874746375,0.6710028159801965
0.034,1.7711000000000001,1.0,2718.4920120350707,0.3178529221580902,1.3207938908872265,0.9556247336266256,0.2874392,0.6718471925045734
0.0345,1.7702437500000001,1.0,2721.5669540932327,0.3216792272379743,1.3203791986608144,0.9565789249200699,0.2874032375,0.6726950544179031
0.035,1.7693750000000001,1.0,2724.2865079170656,0.3254840738357029,1.3199621104145007,0.9574964359262097,0.28736675,0.6735467088619224
0.035500000000000004,1.76849375,1.0,2726.6676455748566,0.32926757976597104,1.3195424669339049,0.9583791222719394,0.2873297375,0.674402461179191
0.036000000000000004,1.7676,1.0,2728.727435461705,0.333029862843474,1.3191201090046458,0.959228722645151,0.2872922,0.6752626148879559
0.0365,1.76669375,1.0,2730.483031673384,0.3367710408829071,1.3186948774123433,0.9600468674930992,0.2872541375,0.6761274716553939
0.037,1.765775,1.0,2731.951663941612,0.34049123169896545,1.3182666129426162,0.9608350869795821,0.28721555,0.6769973312692441
0.0375,1.76484375,1.0,2733.150628131843,0.3441905531063444,1.317835156381084,0.9615948182716573,0.2871764375,0.6778724916078186
0.038,1.7639,1.0,2734.0972773025314,0.347869122919739,1.317400348513366,0.9623274122191785,0.28713679999999997,0.6787532486083985
0.0385,1.76294375,1.0,2734.8090133271517,0.3515270589538446,1.316962030125082,0.9630341394838668,0.28709663750000003,0.6796398962340136
0.039,1.761975,1.0,2735.298204680324,0.3551644721626492,1.316520088077269,0.9637161990968124,0.28705595,0.6805326334297127
0.0395,1.7609937500000001,1.0,2735.578617493566,0.35878147966264295,1.3160743968376394,0.9643747206052383,0.2870147375,0.6814316826011558
0.04,1.76,1.0,2735.670313521101,0.3623782076957221,1.3156247739663334,0.9650107653417411,0.286973,0.6823373790137148
0.0405,1.7589937500000001,1.0,2735.5824322093945,0.3659547664705157,1.31517113639542,0.9656253402523277,0.2869307375,0.683249855813838
0.041,1.757975,1.0,2735.3241307149624,0.3695112661956528,1.3147134010569685,0.966219395814993,0.28688795,0.6841692448825117
0.0415,1.75694375,1.0,2734.90458097834,0.37304781707976237,1.3142514848830487,0.9667938297908383,0.2868446375,0.6850956768137725
0.042,1.7559,1.0,2734.332966950578,0.37656452933147355,1.3137853048057293,0.9673494906886064,0.28680079999999997,0.6860292808927793
0.0425,1.75484375,1.0,2733.6184819729583,0.3800615131594154,1.31331477775708,0.9678871809672541,0.2867564375,0.6869701850734427
0.043000000000000003,1.753775,1.0,2732.7703263091134,0.38353887877221693,1.31283982066917,0.9684076599988329,0.28671155,0.6879185159556171
0.043500000000000004,1.75269375,1.0,2731.797704831243,0.38699673637850723,1.3123603504740688,0.9689116468118731,0.28666613750000003,0.6888743987618523
0.044,1.7516,1.0,2730.7098248581133,0.3904351961869153,1.3118762841038456,0.9693998226335577,0.2866202,0.6898379573137035
0.0445,1.75049375,1.0,2729.5158941469927,0.3938543684060703,1.3113875384905698,0.9698728332473152,0.2865737375,0.6908093140076019
0.045,1.7493750000000001,1.0,2728.2251190380234,0.3972543632446012,1.3108940305663104,0.9703312911809145,0.28652675,0.6917885897902872
0.0455,1.74824375,1.0,2726.840901158721,0.4006352757900209,1.310395730023101,0.9707757795923666,0.2864792375,0.6927757996920477
0.046,1.7471,1.0,2725.3744002878266,0.4039972294000533,1.309892535995173,0.9712068509155847,0.2864312,0.6937710973676035
0.0465,1.7459437500000001,1.0,2723.8325560123703,0.4073403341292332,1.3093843859454701,0.9716250309414874,0.28638263750000004,0.694774559098037
0.047,1.744775,1.0,2722.2196689652324,0.41066469224844737,1.3088712413158392,0.9720308201561856,0.28633355,0.6957862126531016
0.0475,1.74359375,1.0,2720.540037690258,0.4139704060285825,1.3083530635481266,0.9724246945542228,0.28628393750000003,0.6968060848229751
0.048,1.7424,1.0,2718.7979581017757,0.4172575777405253,1.3078298140841789,0.9728071070626635,0.2862338,0.6978342014059308
0.0485,1.74119375,1.0,2716.9977229785522,0.4205263096551625,1.3073014543658426,0.9731784888695907,0.2861831375,0.698870587195912
0.049,1.739975,1.0,2715.143621489631,0.4237767040433809,1.306767945834964,0.9735392506642575,0.28613195,0.6999152659700149
0.0495,1.73874375,1.0,2713.2399387534933,0.4270088631760672,1.3062292499333894,0.9738897837955194,0.2860802375,0.7009682604758729
0.05,1.7375,1.0,2711.29095543054,0.430222889324108,1.3056853281029657,0.9742304613546304,0.286028,0.7020295924189485
0.0505,1.73624375,1.0,2709.300947347921,0.43341888475839024,1.305136141785539,0.9745616391879758,0.2859752375,0.7030992824497305
0.051000000000000004,1.734975,1.0,2707.2741851577107,0.4365969517498005,1.304581652422956,0.9748836568448654,0.28592195,0.7041773501508342
0.051500000000000004,1.73369375,1.0,2705.214934028091,0.4397571925692255,1.3040218214570631,0.97519683846509,0.2858681375,0.7052638140240104
0.052000000000000005,1.7324,1.0,2703.1274533669307,0.4428997094875521,1.3034566103297067,0.9755014936105636,0.2858138,0.7063586914770553
0.0525,1.73109375,1.0,2701.0152237103207,0.4460245720605557,1.3028859875447665,0.9757979150410827,0.28575893750000003,0.7074619851691057
0.053,1.729775,1.0,2698.8830244137544,0.44913192285323844,1.3023099096879283,0.9760863894974428,0.28570355000000003,0.7085737197209078
0.0535,1.72844375,1.0,2696.7325467629917,0.45222185620902616,1.3017283615182347,0.9763671878787905,0.2856476375,0.7096938643352089
0.054,1.7271,1.0,2694.5654581098865,0.4552944659062741,1.3011413279913466,0.9766405693027961,0.2855912,0.7108223870395669
0.0545,1.7257437500000001,1.0,2692.3834233425146,0.4583498457233374,1.300548794062925,0.9769067817587588,0.2855342375,0.711959255061612
0.055,1.724375,1.0,2690.1881048346395,0.4613880894385714,1.2999507446886305,0.9771660626764509,0.28547675,0.7131044348237756
0.0555,1.72299375,1.0,2687.9811623999726,0.4644092908303312,1.2993471648241235,0.9774186394612949,0.2854187375,0.7142578919380072
0.056,1.7216,1.0,2685.764253251118,0.46741354367697213,1.2987380394250652,0.9776647299981281,0.2853602,0.7154195912004726
0.0565,1.72019375,1.0,2683.5390319641906,0.4704009417568494,1.2981233534471162,0.9779045431256441,0.28530113749999997,0.7165894965862432
0.057,1.718775,1.0,2681.307150447967,0.47337157884831815,1.2975030918459372,0.9781382790834395,0.28524155,0.7177675712439665
0.0575,1.71734375,1.0,2679.0702579179174,0.4763255487297336,1.296877239577189,0.9783661299334601,0.2851814375,0.7189537774905239
0.058,1.7159,1.0,2676.830000875946,0.47926294517945106,1.2962457815965323,0.9785882799575016,0.2851208,0.7201480768056752
0.0585,1.71444375,1.0,2674.5880230945263,0.48218386197582574,1.295608702859628,0.978804906032312,0.2850596375,0.7213504298266844
0.059000000000000004,1.7129750000000001,1.0,2672.345965605889,0.4850883928972128,1.2949659883221365,0.9790161779837169,0.28499795,0.7225607963429377
0.059500000000000004,1.71149375,1.0,2670.1054666967825,0.4879766317219675,1.2943176229397189,0.9792222589211056,0.2849357375,0.7237791352905405
0.06,1.71,1.0,2667.868161907435,0.49084867222844497,1.293663591668036,0.9794233055535034,0.284873,0.7250054047469039
0.0605,1.7084937500000001,1.0,2665.634423669737,0.4937046073318406,1.2930038910554296,0.9796194690423363,0.2848097375,0.7262395402626849
0.061,1.7069750000000001,1.0,2663.405376662971,0.4965445242602588,1.292338510722522,0.979810893891747,0.28474595,0.7274814896318171
0.0615,1.7054437500000001,1.0,2661.1825050979132,0.49936851160040874,1.2916674369629308,0.9799977190072955,0.2846816375,0.7287312060442435
0.062,1.7039,1.0,2658.965150013641,0.5021766583747167,1.2909906757848018,0.9801800790835635,0.2846168,0.7299886052496951
0.0625,1.70234375,1.0,2656.7530721701764,0.5049690535355709,1.2903082293394361,0.9803581035336033,0.2845514375,0.731253609623091
0.063,1.7007750000000001,1.0,2654.5506638094366,0.5077457856555838,1.289620057093211,0.980531914701341,0.28448555,0.7325262198001441
0.0635,1.69919375,1.0,2652.3563267404006,0.5105069427980929,1.2889261736824438,0.9807016331609535,0.28441913750000003,0.7338063334222651
0.064,1.6976,1.0,2650.1700269068674,0.5132526118549184,1.288226579339365,0.9808673742308641,0.2843522,0.7350938742421197
0.0645,1.69599375,1.0,2647.991730323136,0.5159828797178803,1.2875212742962057,0.9810292490121878,0.2842847375,0.7363887653924939
0.065,1.6943753984944234,1.0,2645.840251326547,0.5186978328683417,1.286810264739123,0.9811873648404137,0.28421676673676577,0.7376909184957721
0.0655,1.6927535548151589,1.0,2644.1203850946763,0.5213975576633026,1.2860936999500439,0.9813418322650935,0.28414864930223666,0.7389999835742802
0.066,1.6911317111358943,1.0,2642.959785442303,0.5240821390542363,1.2853719739751832,0.9814927698626265,0.28408053186770754,0.7403151673134801
0.0665,1.6895098674566298,1.0,2642.314247907655,0.5267516618533488,1.2846454917901613,0.9816402926419061,0.28401241443317843,0.7416356632765855
0.067,1.6878880237773652,1.0,2642.1477930171727,0.5294062091152971,1.2839145840529425,0.9817845079672941,0.2839442969986493,0.7429608066391731
0.0675,1.6862661800981007,1.0,2642.409526895497,0.5320458673921745,1.2831797205108315,0.9819255264849072,0.28387617956412026,0.7442896871537225
0.068,1.6846443364188362,1.0,2643.060108074993,0.5346707211737443,1.2824412651497281,0.9820634499686598,0.2838080621295911,0.7456215935606536
0.0685,1.6830224927395716,1.0,2644.073422023134,0.537280852122732,1.281699460470362,0.9821983708691383,0.28373994469506203,0.7469560394474075
0.069,1.681400649060307,1.0,2645.4234124261566,0.539876341901864,1.2809545489734626,0.9823303785721301,0.28367182726053286,0.7482925427650453
0.0695,1.6797788053810425,1.0,2647.084063834171,0.542457272173866,1.280206773159759,0.9824595595277477,0.2836037098260038,0.749630625878174
0.07,1.678156961701778,1.0,2649.0293856078383,0.5450237246014638,1.2794563755299813,0.9825859973733213,0.2835355923914747,0.7509698156111164
0.07050000000000001,1.6765351180225134,1.0,2651.233397170823,0.5475757808473833,1.2787035985848583,0.9827097730503991,0.2834674749569456,0.7523096432903387
0.07100000000000001,1.674913274343249,1.0,2653.6716413166846,0.550113521977795,1.2779486707506413,0.9828309642336803,0.28339935752241646,0.7536496697319885
0.07150000000000001,1.6732914306639843,1.0,2656.3258546984475,0.5526370275939269,1.2771917632685434,0.9829496434407776,0.28333124008788735,0.7549895611482008
0.07200000000000001,1.67166958698472,1.0,2659.17082257862,0.555146380725538,1.2764331113077363,0.9830658840005972,0.28326312265335823,0.7563288742752701
0.0725,1.6700477433054555,1.0,2662.193568408476,0.5576416592858988,1.2756728371004424,0.9831797515724754,0.2831950052188291,0.7576673688934723
0.073,1.668425899626191,1.0,2665.3811038889926,0.5601229411882798,1.2749110628788842,0.9832913097642082,0.2831268877843,0.7590048071007722
0.0735,1.6668040559469264,1.0,2668.720424740331,0.5625903043459514,1.2741479108752842,0.9834006202126039,0.2830587703497709,0.7603409533249912
0.074,1.6651822122676618,1.0,2672.1985068021263,0.5650438266721841,1.2733835033218648,0.983507742660405,0.2829906529152418,0.7616755743350254
