Time [s],Phi [rad],STIM [ ],Fsee [N],Gamma [ ],Lcerel [ ],q [ ],Lmtc [m],fisomrel [ ]
0.0,1.8,1.0,18.154708406936614,0.0004406049753856076,1.3793187888695444,0.0050502118591687125,0.288653,0.5411902309009631
0.0005,1.79999375,1.0,18.60040116017106,0.006047342838757958,1.3792665935669826,0.01417908802128312,0.2886527375,0.5413164891712285
0.001,1.799975,1.0,22.261583119788433,0.01162263133564909,1.378873090042083,0.03788768639045205,0.28865195,0.5422677986032007
0.0015,1.79994375,1.0,32.41239755007665,0.01716664687307364,1.37793298171249,0.07369837834813865,0.2886506375,0.5445365476208761
0.002,1.7999,1.0,56.315825852331756,0.022679564866456916,1.3761930059884149,0.11837040514006272,0.2886488,0.5487207342008944
0.0025,1.79984375,1.0,101.57823441688409,0.028161559748964914,1.37372269596849,0.16853892509343466,0.28864643749999996,0.5546280182335572
0.003,1.7997750000000001,1.0,166.67676876454104,0.033612804974783965,1.3710021592435901,0.22136379641624743,0.28864354999999997,0.561088641060567
0.0035,1.79969375,1.0,244.09457237347945,0.03903347302572342,1.3683885651139363,0.27466998337833226,0.2886401375,0.5672508453230075
0.004,1.7996,1.0,328.2603725652275,0.04442373541472365,1.36597709658955,0.3268411313911815,0.2886362,0.5728978468491176
0.0045000000000000005,1.7994937500000001,1.0,416.28407113270606,0.049783762690717284,1.3637588142842239,0.37675856317629247,0.2886317375,0.5780597099187996
0.005,1.799375,1.0,506.5609302274763,0.05511372445640655,1.3617069997032307,0.4237301386207833,0.28862675,0.582806270298747
0.0055,1.79924375,1.0,597.9940752937737,0.060413789355231576,1.3597985194568654,0.46739713826702234,0.2886212375,0.5871971473107389
0.006,1.7991000000000001,1.0,689.719366966605,0.06568412506972975,1.3580158585048734,0.5076417146455794,0.2886152,0.5912775671524824
0.006500000000000001,1.79894375,1.0,781.0330262922475,0.07092489836021253,1.3563454490027704,0.5445084431699763,0.2886086375,0.5950826561703251
0.007,1.798775,1.0,871.3513828094393,0.07613627510501092,1.3547764956836565,0.5781440787216705,0.28860155,0.5986404276480372
0.0075,1.79859375,1.0,960.1787144938976,0.08131841998203129,1.353300297378826,0.6087539073506556,0.2885939375,0.6019735327552078
0.008,1.7984,1.0,1047.1510278743597,0.08647149737216243,1.3519088020955747,0.6365709239877893,0.2885858,0.6051026626519695
0.0085,1.79819375,1.0,1131.9466744781041,0.09159567000650877,1.350595488373885,0.6618365580152146,0.2885771375,0.6080446541195057
0.009000000000000001,1.797975,1.0,1214.322890303184,0.09669109987438264,1.3493543927066982,0.6847875790088955,0.28856795,0.6108147585986419
0.0095,1.79774375,1.0,1294.1200262802045,0.10175794858713193,1.34817981247043,0.7056485615473066,0.2885582375,0.6134273539159953
0.01,1.7975,1.0,1371.207228014307,0.1067963764455121,1.3470668383363051,0.7246282524709295,0.288548,0.6158948014261513
0.0105,1.79724375,1.0,1445.491611181234,0.1118065424424198,1.346011026805476,0.7419176997371744,0.2885372375,0.6182282185236615
0.011,1.796975,1.0,1516.9260046138143,0.11678860496818891,1.3450081642559426,0.7576898867857632,0.28852595000000003,0.6204380312396192
0.0115,1.79669375,1.0,1585.521046016739,0.1217427228551067,1.3440540263554928,0.7721002472573578,0.2885141375,0.6225345247084627
0.012,1.7964,1.0,1651.267068125312,0.12666905218629995,1.3431452303247466,0.7852881507203023,0.28850180000000003,0.6245259914074508
0.0125,1.79609375,1.0,1714.1732834869247,0.13156774822822187,1.3422786513011709,0.7973779379870288,0.2884889375,0.6264200410186591
0.013000000000000001,1.7957750000000001,1.0,1774.2850093069444,0.13643896624732568,1.3414511644222327,0.8084802274574285,0.28847555,0.6282241782994307
0.0135,1.79544375,1.0,1831.6644491172465,0.1412828604453576,1.3406598224772452,0.8186933946208206,0.2884616375,0.6299454252224865
0.014,1.7951000000000001,1.0,1886.3824231316019,0.14609958506230958,1.3399019006338944,0.8281049171878601,0.2884472,0.6315902357954917
0.0145,1.79474375,1.0,1938.492970624332,0.15088929147350724,1.3391751268936065,0.8367926742862486,0.2884322375,0.6331640092369449
0.015,1.794375,1.0,1988.0699249179186,0.15565213097327357,1.3384772398524543,0.8448258962607261,0.28841675,0.6346720602738015
0.0155,1.79399375,1.0,2035.1957454318945,0.16038825403935128,1.3378060867359443,0.8522662092415433,0.2884007375,0.6361194125132261
0.016,1.7936,1.0,2079.966219787633,0.1650978118963479,1.3371595511207806,0.8591685107290125,0.2883842,0.6375109601021485
0.0165,1.7931937500000001,1.0,2122.466135162426,0.16978095396076257,1.3365357864786687,0.8655818338859772,0.2883671375,0.6388509707244386
0.017,1.792775,1.0,2162.7628191006393,0.17443782705804953,1.335933255491149,0.8715500479829026,0.28834955,0.6401430097420869
0.0175,1.7923437500000001,1.0,2200.934229585067,0.17906857801366308,1.3353504208397622,0.8771123790951294,0.2883314375,0.6413906098297015
0.018000000000000002,1.7919,1.0,2237.0680650810127,0.18367335365305748,1.3347857452060485,0.8823039559139226,0.2883128,0.6425972729809655
0.0185,1.79144375,1.0,2271.2499005629556,0.18825229957668527,1.334237801143989,0.8871563155245155,0.2882936375,0.643766238158263
0.019,1.790975,1.0,2303.5735399414975,0.19280556244006147,1.3337051570117309,0.8916977909988898,0.28827395,0.6449007276268369
0.0195,1.79049375,1.0,2334.1143647869085,0.19733328600074052,1.3331866323352581,0.8959539372698644,0.2882537375,0.6460034057177599
0.02,1.79,1.0,2362.9394073104186,0.20183561227071414,1.3326811854358978,0.8999478178157362,0.288233,0.6470766226306308
0.0205,1.78949375,1.0,2390.120729728392,0.20631268326197408,1.3321877746349768,0.9037002524592952,0.2882117375,0.6481227116806819
0.021,1.788975,1.0,2415.7350038746945,0.21076464098651204,1.3317053582538225,0.9072300661892881,0.28818995000000003,0.6491439901329823
0.021500000000000002,1.78844375,1.0,2439.853278887582,0.21519162579004575,1.3312329891771078,0.9105543266636619,0.2881676375,0.6501425602066264
0.022,1.7879,1.0,2462.5559632210507,0.2195937801540954,1.3307696657331576,0.9136885053362138,0.2881448,0.6511206257358904
0.0225,1.78734375,1.0,2483.907381121975,0.2239712432816712,1.330314572259823,0.9166466928611953,0.28812143749999997,0.6520799851811547
0.023,1.786775,1.0,2503.9626064766653,0.2283241521612358,1.3298670075214967,0.9194417299759692,0.28809755,0.6530221854235104
0.0235,1.78619375,1.0,2522.779095616841,0.2326526437812518,1.3294262702825712,0.9220853164817385,0.28807313749999996,0.6539487641827626
0.024,1.7856,1.0,2540.4164879503314,0.23695685513018183,1.3289916593074393,0.9245881283755627,0.2880482,0.6548612503384494
0.0245,1.78499375,1.0,2556.9364174941425,0.2412369231964885,1.3285624733604942,0.9269599215459782,0.2880227375,0.655761164219498
0.025,1.784375,1.0,2572.3923938473426,0.24549298154811774,1.328138104288756,0.9292096379952427,0.28799675,0.6566498230669056
0.025500000000000002,1.78374375,1.0,2586.8473940752697,0.2497251697546786,1.3277178699097523,0.9313454623211642,0.2879702375,0.6575286917787458
0.026000000000000002,1.7831000000000001,1.0,2600.3451765345158,0.25393362015087156,1.327301280841543,0.9333749327125258,0.2879432,0.6583988251259101
0.0265,1.78244375,1.0,2612.9286606317037,0.2581184642908718,1.3268878660968213,0.9353049774131362,0.2879156375,0.6592612340518706
0.027,1.781775,1.0,2624.6417909489633,0.2622798337288544,1.32647715468828,0.9371419698904908,0.28788755,0.6601169243196583
0.0275,1.7810937500000001,1.0,2635.5294476050667,0.26641786001899437,1.3260686756286122,0.9388917806473644,0.2878589375,0.6609668966001367
0.028,1.7804,1.0,2645.637361535455,0.2705326747154669,1.325661957930511,0.9405598235651148,0.2878298,0.6618121465461293
0.0285,1.77969375,1.0,2655.0037532085107,0.2746244066449033,1.3252566069309202,0.9421511073058018,0.2878001375,0.6626535065299264
0.029,1.778975,1.0,2663.668162596264,0.2786931867773997,1.3248522217333583,0.9436702616942391,0.28776995,0.6634918177133324
0.029500000000000002,1.7782437500000001,1.0,2671.680951080122,0.28273914893659136,1.3244483074084088,0.945121559447162,0.2877392375,0.6643281116703401
0.03,1.7775,1.0,2679.0698052101166,0.2867624184541173,1.324044582440358,0.9465089847569998,0.287708,0.6651629738235143
0.0305,1.77674375,1.0,2685.8628147888535,0.29076312066161647,1.3236407653134923,0.947836232636687,0.2876762375,0.6659969866941869
0.031,1.775975,1.0,2692.0884373335334,0.29474138089072793,1.3232365745120978,0.9491067335441437,0.28764395,0.6668307299033326
0.0315,1.7751937500000001,1.0,2697.775464294378,0.2986973244730906,1.3228317285204607,0.9503236756211381,0.2876111375,0.6676647801673838
0.032,1.7744,1.0,2702.9529890305917,0.30263107674034345,1.3224259458228673,0.9514900248034138,0.2875778,0.668499711288997
0.0325,1.77359375,1.0,2707.6503765436046,0.30654276302412553,1.3220189449036037,0.9526085430287881,0.2875439375,0.669336094142761
0.033,1.772775,1.0,2711.89723496691,0.3104325086560757,1.321610444246956,0.953681804743521,0.28750955,0.6701744966558533
0.0335,1.7719437500000002,1.0,2715.7201738863164,0.314300431803578,1.3212001916337206,0.9547122132705618,0.2874746375,0.6710154237706032
0.034,1.7711000000000001,1.0,2719.146176540003,0.31814666422638427,1.320787933110841,0.9557020164267989,0.2874392,0.6718593812834013
0.0345,1.7702437500000001,1.0,2722.1940335435215,0.321971325009122,1.3203734907730995,0.9566533201394765,0.2874032375,0.672706716868172
0.035,1.7693750000000001,1.0,2724.8825893308067,0.3257745330700746,1.3199566873744177,0.9575680944630399,0.28736675,0.673557774886445
0.035500000000000004,1.76849375,1.0,2727.2308011811715,0.3295564073275254,1.319537345668717,0.9584481838921217,0.2873297375,0.674412897713619
0.036000000000000004,1.7676,1.0,2729.2577266618405,0.33331706669975786,1.3191152884099184,0.959295316803536,0.2872922,0.675272425711271
0.0365,1.76669375,1.0,2730.9825117669666,0.33705663010505527,1.318690338351944,0.9601111140852167,0.2872541375,0.6761366971974602
0.037,1.765775,1.0,2732.424379752727,0.3407752164617011,1.3182623182487145,0.9608970970304559,0.28721555,0.6770060484150318
0.0375,1.76484375,1.0,2733.6026206698198,0.34447294468797873,1.3178310508541515,0.9616546945675011,0.2871764375,0.6778808134979137
0.038,1.7639,1.0,2734.515535368421,0.3481499104439921,1.3173965500485043,0.9623852634111069,0.28713679999999997,0.6787609375551891
0.0385,1.76294375,1.0,2735.197227578206,0.351806255037528,1.3169585049561072,0.9630900584389263,0.28709663750000003,0.679647022117313
0.039,1.761975,1.0,2735.6708420133177,0.3554421053074842,1.316516704651831,0.963770267293787,0.28705595,0.6805394632536532
0.0395,1.7609937500000001,1.0,2735.945524665075,0.359057571597291,1.3160710656091907,0.9644270172047799,0.2870147375,0.6814383975914242
0.04,1.76,1.0,2736.0304457613224,0.36265276425037873,1.3156215043017014,0.965061370810839,0.286973,0.6823439605303925
0.0405,1.7589937500000001,1.0,2735.9347964987683,0.3662277936101777,1.3151679372028782,0.9656743305422376,0.2869307375,0.6832562862222024
0.041,1.757975,1.0,2735.667785929324,0.3697827700201182,1.314710280786236,0.966266842660523,0.28688795,0.6841755075492617
0.0415,1.75694375,1.0,2735.238638001774,0.37331780382363067,1.3142484515252906,0.9668398009868107,0.2868446375,0.6851017561031796
0.042,1.7559,1.0,2734.6565887576753,0.3768330053641453,1.3137823658935563,0.9673940503454527,0.28680079999999997,0.6860351621627625
0.0425,1.75484375,1.0,2733.930883682401,0.3803284849850925,1.3133119403645486,0.9679303897475137,0.2867564375,0.6869758546715612
0.043000000000000003,1.753775,1.0,2733.0707752099106,0.38380435302990246,1.3128370914117826,0.968449575336164,0.28671155,0.6879239612149743
0.043500000000000004,1.75269375,1.0,2732.08552038378,0.3872607198420056,1.3123577355087732,0.9689523231140263,0.28666613750000003,0.6888796079969111
0.044,1.7516,1.0,2730.9843786710185,0.39069769576483215,1.311873789129036,0.969439311470641,0.2866202,0.6898429198160001
0.0445,1.75049375,1.0,2729.776609932527,0.39411539114181254,1.3113851687460854,0.969911183526545,0.2865737375,0.6908140200413646
0.045,1.7493750000000001,1.0,2728.47147254641,0.39751391631637706,1.3108917908334368,0.9703685493089489,0.28652675,0.6917930305879421
0.0455,1.74824375,1.0,2727.078221687248,0.400893381631956,1.3103935718646056,0.9708119877726428,0.2864792375,0.6927800718913646
0.046,1.7471,1.0,2725.595173090087,0.4042538749068121,1.3098905277761936,0.9712420529798125,0.2864312,0.6937750663092863
0.0465,1.7459437500000001,1.0,2724.0354133557007,0.4075955223064318,1.3093825401659511,0.971659266715435,0.28638263750000004,0.6947782010218866
0.047,1.744775,1.0,2722.409012065516,0.4109184392901005,1.308869517988703,0.9720641254714231,0.28633355,0.6957896073259764
0.0475,1.74359375,1.0,2720.7196561195037,0.4142227267059447,1.3083514282251332,0.9724571036762126,0.28628393750000003,0.6968093007382671
0.048,1.7424,1.0,2718.971030220021,0.41750848540209073,1.307828237855924,0.9728386527894188,0.2862338,0.6978372958498618
0.0485,1.74119375,1.0,2717.1668164616167,0.4207758162266652,1.3072999138617591,0.9732092026234215,0.2861831375,0.6988736063155466
0.049,1.739975,1.0,2715.310693943968,0.4240248200277945,1.3067664232233214,0.973569162577152,0.28613195,0.6999182448430168
0.0495,1.73874375,1.0,2713.4063384096685,0.4272555976536052,1.306227732921294,0.9739189227886675,0.2860802375,0.7009712231820302
0.05,1.7375,1.0,2711.457421906198,0.4304682499522237,1.3056838099363597,0.974258855212546,0.286028,0.7020325521134934
0.0505,1.73624375,1.0,2709.467612471375,0.4336628777717765,1.3051346212492019,0.9745893146276384,0.2859752375,0.7031022414384762
0.051000000000000004,1.734975,1.0,2707.440573844092,0.4368395819603901,1.3045801338405036,0.9749106395802659,0.28592195,0.7041802999671585
0.051500000000000004,1.73369375,1.0,2705.3799651979843,0.4399984633661909,1.3040203146909481,0.97522315326753,0.2858681375,0.7052667355077069
0.052000000000000005,1.7324,1.0,2703.28944090035,0.4431396228373055,1.3034551307812183,0.9755271643650317,0.2858138,0.7063615548550819
0.0525,1.73109375,1.0,2701.17265029459,0.44626316122186027,1.3028845490919974,0.9758229678029596,0.28575893750000003,0.7074647637797751
0.053,1.729775,1.0,2699.033237507012,0.4493691793679818,1.3023085366039682,0.976110845494178,0.28570355000000003,0.7085763670164771
0.0535,1.72844375,1.0,2696.874841277884,0.4524577781237965,1.301727060297814,0.97639106701768,0.2856476375,0.7096963682526765
0.054,1.7271,1.0,2694.696482239545,0.4555290563058439,1.3011401293506657,0.9766638926349777,0.2855912,0.7108246890773735
0.0545,1.7257437500000001,1.0,2692.505606672574,0.45858310801286806,1.3005476758462753,0.9769295663031146,0.2855342375,0.7119613984164612
0.055,1.724375,1.0,2690.3042593236096,0.46162002899469334,1.2999496812134355,0.9771883247049379,0.28547675,0.7131064691962961
0.0555,1.72299375,1.0,2688.0910629715104,0.46463991493557494,1.2993461581943313,0.9774403963771303,0.2854187375,0.7142598136935407
0.056,1.7216001286953801,1.0,2685.870985616801,0.467642861519768,1.2987371195311481,0.9776860002906711,0.28536020540520596,0.7154213437953844
0.0565,1.720201922402297,1.0,2684.0211152827333,0.4706289638026426,1.2981226250871492,0.9779253490020793,0.28530148074089645,0.7165908814130966
0.057,1.7188037161092142,1.0,2682.7220216938426,0.47359831702289973,1.2975030864161345,0.9781586665225537,0.285242756076587,0.7177675815461544
0.0575,1.7174055098161312,1.0,2681.9328676350324,0.47655101451097454,1.2968788743248174,0.9783861652768706,0.2851840314122775,0.7189506823330015
0.058,1.716007303523048,1.0,2681.6144105793046,0.4794871493793027,1.296250346619651,0.9786080483922577,0.285125306747968,0.7201394519379356
0.0585,1.7146090972299652,1.0,2681.7275482775763,0.48240681474032,1.295617861107089,0.9788245109008188,0.28506658208365854,0.7213331638854268
0.059000000000000004,1.7132108909368822,1.0,2682.237014638565,0.4853101029539956,1.294981741403826,0.9790357381853148,0.28500785741934903,0.7225311614743823
0.059500000000000004,1.711812684643799,1.0,2683.10795983764,0.4881971066238252,1.294342308042679,0.9792419082300988,0.2849491327550395,0.7237327987758566
0.06,1.710414478350716,1.0,2684.313666983621,0.4910679163964553,1.2936998075181247,0.979443187950138,0.2848904080907301,0.7249375735453332
0.0605,1.7090162720576332,1.0,2685.8276133251848,0.4939226228816281,1.293054484929624,0.9796397377696591,0.2848316834264206,0.7261449899956404
0.061,1.70761806576455,1.0,2687.6252940250074,0.4967613158680114,1.2924065671305114,0.9798317109686012,0.2847729587621111,0.727354590238998
0.0615,1.706219859471467,1.0,2689.6872002953055,0.49958408330294996,1.2917562353587821,0.980019252490959,0.2847142340978016,0.7285660048765017
0.062,1.7048216531783842,1.0,2691.9761137283076,0.5023910212132129,1.291103833039328,0.9802025109661846,0.28465550943349216,0.7297785662940401
0.0625,1.7034234468853011,1.0,2694.4777067142686,0.5051822163657048,1.2904494938882922,0.9803816179394744,0.28459678476918265,0.730992000956744
0.063,1.702025240592218,1.0,2697.177650637129,0.5079577555273301,1.2897933516218183,0.9805567001135639,0.28453806010487315,0.7322060374865855
0.0635,1.700627034299135,1.0,2700.061610330753,0.5107177254649933,1.2891355399560496,0.9807278795664185,0.2844793354405637,0.7334204066783281
0.064,1.6992288280060521,1.0,2703.1152389311774,0.5134622129455988,1.2884761926071295,0.9808952739576302,0.2844206107762542,0.7346348415143313
0.0645,1.697830621712969,1.0,2706.3241731258986,0.5161913047360511,1.2878154432912017,0.9810589967241806,0.2843618861119447,0.7358490771782178
0.065,1.696432415419886,1.0,2709.6740287992297,0.5189050876032547,1.2871534257244093,0.981219157266193,0.28430316144763523,0.7370628510673984
0.0655,1.695034209126803,1.0,2713.1503970737976,0.5216036483141141,1.2864902736228958,0.9813758611232489,0.2842444367833257,0.7382759028044589
0.066,1.69363600283372,1.0,2716.7426855058557,0.5242870706884326,1.2858260856734498,0.9815292082200683,0.2841857121190162,0.7394880381013831
0.0665,1.692237796540637,1.0,2720.4384489327463,0.5269554422374352,1.2851609772398076,0.9816792960727895,0.28412698745470677,0.7406990339911924
0.067,1.690839590247554,1.0,2724.2264516512755,0.5296088493297512,1.28449505242403,0.9818262182155869,0.28406826279039726,0.7419086898796188
0.0675,1.6894413839544709,1.0,2728.100213948403,0.532247374156881,1.2838283718414685,0.9819700626208716,0.28400953812608776,0.7431168856435622
0.068,1.688043177661388,1.0,2732.053241181471,0.5348710989103251,1.2831609961074744,0.9821109142712894,0.2839508134617783,0.7443235021792822
0.0685,1.686644971368305,1.0,2736.0790228029764,0.5374801057815841,1.282492985837399,0.9822488552836967,0.2838920887974688,0.7455284214052011
0.069,1.6852467650752219,1.0,2740.171031467587,0.5400744769621583,1.2818244016465938,0.9823839650271876,0.2838333641331593,0.746731526264475
0.0695,1.683848558782139,1.0,2744.322722219738,0.542654294643548,1.2811553041504105,0.9825163202354945,0.28377463946884984,0.7479327007273284
0.07,1.682450352489056,1.0,2748.5275317630862,0.5452196410172537,1.2804857539642003,0.9826459951140688,0.28371591480454034,0.7491318297931573
0.07050000000000001,1.6810521461959729,1.0,2752.7788778115564,0.547770598274776,1.2798158117033145,0.9827730614421266,0.28365719014023083,0.7503287994923956
0.07100000000000001,1.6796539399028898,1.0,2757.0769774357373,0.5503072357301783,1.27914547631247,0.9828975850685635,0.2835984654759214,0.7515236066782022
0.07150000000000001,1.678255733609807,1.0,2761.4091920553233,0.5528296512607344,1.2784748629247131,0.9830196367082358,0.2835397408116119,0.7527160418337444
0.07200000000000001,1.6768575273167239,1.0,2765.77175664252,0.5553379244359001,1.2778040061915057,0.9831392800995689,0.28348101614730237,0.7539060399998402
0.0725,1.6754593210236408,1.0,2770.162260916005,0.5578321320434906,1.277132928435529,0.9832565762389159,0.2834222914829929,0.7550935585993237
0.073,1.674061114730558,1.0,2774.5782870967946,0.5603123508713208,1.2764616519794652,0.9833715841964821,0.28336356681868347,0.7562785554361771
0.0735,1.672662908437475,1.0,2779.0174098043426,0.5627786577072057,1.2757901991459955,0.9834843611904057,0.28330484215437396,0.7574609886958297
