Time [s],Phi [rad],STIM [ ],Fsee [N],Gamma [ ],Lcerel [ ],q [ ],Lmtc [m],fisomrel [ ]
0.0,1.8,1.0,17.96852286302578,4.972585372596005e-05,1.3793395933310948,0.0050006507186838986,0.288653,0.541139900929208
0.0005,1.79999375,1.0,18.29117984329405,0.00565865623981858,1.3793007845810432,0.0130511704051531,0.2886527375,0.5412337844904498
0.001,1.799975,1.0,21.662396848915645,0.011236124961171557,1.3789338088854646,0.03581588872271948,0.28865195,0.5421210729705173
0.0015,1.79994375,1.0,31.17616008584919,0.016782308493746588,1.3780371019885158,0.0708853016667292,0.2886506375,0.5442855533167235
0.002,1.7999,1.0,53.814765894676206,0.022297382321788534,1.3763530725058333,0.11505359222134091,0.2886488,0.5483366224981474
0.0025,1.79984375,1.0,97.51083414745159,0.027781520945670293,1.3739163017150262,0.16493988251436809,0.28864643749999996,0.5541664518869818
0.003,1.7997750000000001,1.0,161.46895528239173,0.033234897889235865,1.371195239602424,0.2176569593837225,0.28864354999999997,0.560631677603632
0.0035,1.79969375,1.0,238.2609378058098,0.038657685699688214,1.3685669532283882,0.2709873430168442,0.2886401375,0.5668316358033901
0.004,1.7996,1.0,322.0815893865121,0.044050055958291714,1.366139815993002,0.3232783615223873,0.2886362,0.5725179692111307
0.0045000000000000005,1.7994937500000001,1.0,409.9046292860185,0.049412179285579574,1.3639078700122413,0.37337866245619244,0.2886317375,0.5777138461197502
0.005,1.799375,1.0,500.06351230372917,0.054744225332642,1.3618445342194063,0.42056943702468796,0.28862675,0.5824889446924135
0.0055,1.79924375,1.0,591.4463111910256,0.06004636282642046,1.359926024013484,0.46447179442471703,0.2886212375,0.586904519253332
0.006,1.7991000000000001,1.0,683.1749510760263,0.06531875951813425,1.3581344779658329,0.5049539069952532,0.2886152,0.5910066826917741
0.006500000000000001,1.79894375,1.0,774.536704411005,0.07056158223376872,1.3564560670827566,0.542051210559913,0.2886086375,0.594831225254762
0.007,1.798775,1.0,864.9362438574419,0.07577499686419713,1.3548798904007977,0.5759049904306309,0.28860155,0.5984064521336665
0.0075,1.79859375,1.0,953.8791948008641,0.08095916827559133,1.3533969988019054,0.6067175064713627,0.2885939375,0.6017556161919836
0.008,1.7984,1.0,1040.9882257879467,0.08611426079400838,1.3519993756353208,0.6347206188073634,0.2885858,0.6048993608174246
0.0085,1.79819375,1.0,1125.932191327546,0.0912404371495023,1.3506804946036155,0.6601557027174945,0.2885771375,0.6078545621956748
0.009000000000000001,1.797975,1.0,1208.4733609585498,0.09633785956544744,1.3494342041509568,0.6832600476468825,0.28856795,0.6106369163564651
0.0095,1.79774375,1.0,1288.453197798997,0.10140668987686764,1.3482547011862203,0.7042591909690356,0.2885582375,0.613261043053879
0.01,1.7975,1.0,1365.7231034170213,0.10644708789095257,1.3471372392078784,0.7233631707523525,0.288548,0.61573895776509
0.0105,1.79724375,1.0,1440.194115665265,0.11145921304217404,1.346077255873081,0.7407642362036095,0.2885372375,0.6180820566561164
0.011,1.796975,1.0,1511.83095264175,0.11644322417049673,1.345070339705704,0.7566365254239538,0.28852595000000003,0.6203012138245856
0.0115,1.79669375,1.0,1580.619968346676,0.12139927937181053,1.3441125227318897,0.7711367832795809,0.2885141375,0.6224061597547661
0.012,1.7964,1.0,1646.5457786832972,0.12632753472503494,1.3432004444391024,0.7844054838570507,0.28850180000000003,0.6244051496709268
0.0125,1.79609375,1.0,1709.6330444949997,0.13122814620269252,1.3423307619631686,0.7965678741866097,0.2884889375,0.6263062800182284
0.013000000000000001,1.7957750000000001,1.0,1769.9309477064057,0.13610126896566307,1.341500281999682,0.8077354533109686,0.28847555,0.6281172110782451
0.0135,1.79544375,1.0,1827.5062716821556,0.14094705833850155,1.3407059876140854,0.8180073879057906,0.2884616375,0.6298451211859396
0.014,1.7951000000000001,1.0,1882.3995838216406,0.14576566645272726,1.3399454713514722,0.8274719982439155,0.2884472,0.6314957796799279
0.0145,1.79474375,1.0,1934.675145958341,0.1505572454398595,1.3392163257569347,0.8362077488189589,0.2884322375,0.6330748862881541
0.015,1.794375,1.0,1984.4144710114713,0.1553219471410948,1.3385161903163028,0.8442844009312249,0.28841675,0.6345879747887012
0.0155,1.79399375,1.0,2031.704173961236,0.16005992263031021,1.3378428565648943,0.8517640647647523,0.2884007375,0.6360401921813529
0.016,1.7936,1.0,2076.643516738576,0.16477132307030307,1.337194162931121,0.8587020675120816,0.2883842,0.6374365321593769
0.0165,1.7931937500000001,1.0,2119.2921887396915,0.1694562961533418,1.3365685151999271,0.8651479103246705,0.2883671375,0.6387807225003712
0.017,1.792775,1.0,2159.721814887819,0.17411498957169477,1.3359643191562574,0.871145785736599,0.28834955,0.6400764548911749
0.0175,1.7923455602834941,1.0,2198.0956829448482,0.17874755101763046,1.3353799805850561,0.8767352052141936,0.2883315135319068,0.641327387189947
0.018000000000000002,1.7919147876222958,1.0,2234.9133952630527,0.18335412699674034,1.3348140622844256,0.881951591139401,0.2883134210801364,0.6425368102570179
0.0185,1.7914840149610978,1.0,2270.2857388642115,0.18793486496529738,1.3342655937158898,0.8868268356711898,0.2882953286283661,0.6437069925311342
0.019,1.7910532422998995,1.0,2304.256315908009,0.19248990909735544,1.3337337371345637,0.891389613211683,0.2882772361765958,0.6448399001855802
0.0195,1.7906224696387012,1.0,2336.870147030999,0.1970194025481372,1.3332176841330052,0.8956657252328879,0.2882591437248254,0.6459374202201428
0.02,1.790191696977503,1.0,2368.17627724346,0.2015234884728654,1.332716626303773,0.8996784204311212,0.2882410512730551,0.647001424046669
0.0205,1.7897609243163046,1.0,2398.2261281468477,0.20600230968086397,1.3322297685416242,0.9034486843360273,0.2882229588212848,0.6480337400981466
0.021,1.7893301516551066,1.0,2427.063013552012,0.2104560062953184,1.3317564271884463,0.9069955104187669,0.2882048663695145,0.6490359471274143
0.021500000000000002,1.7888993789939083,1.0,2454.7559260306452,0.21488472471092346,1.3312957007116337,0.910336053933187,0.28818677391774417,0.6500100723532769
0.022,1.78846860633271,1.0,2481.34189351525,0.21928860269539635,1.3308470231843184,0.9134859368874015,0.2881686814659738,0.6509574210780457
0.0225,1.7880378336715117,1.0,2506.8602160233813,0.22366777801645446,1.330409828679632,0.9164593479824197,0.2881505890142035,0.6518792892598733
0.023,1.7876070610103134,1.0,2531.3523180241828,0.22802238844181502,1.3299835512707068,0.9192691939545057,0.28813249656243317,0.6527769639374135
0.0235,1.7871762883491151,1.0,2554.861607906334,0.23235257173919532,1.3295676250306745,0.9219272331542588,0.2881144041106628,0.6536517236340584
0.024,1.786745515687917,1.0,2577.4333445469993,0.23665846567631263,1.329161484032667,0.9244441936131788,0.2880963116588925,0.6545048387417483
0.0245,1.7863147430267188,1.0,2599.107392188688,0.240940205608118,1.3287646286601622,0.926829888026017,0.2880782192071222,0.6553374328505921
0.025,1.7858839703655205,1.0,2619.9288491797793,0.24519792934903242,1.3283765245695922,0.9290932901155323,0.28806012675535186,0.6561506955089158
0.025500000000000002,1.7854531977043222,1.0,2639.940373149056,0.24943177372889067,1.3279966733592632,0.93124262767644,0.28804203430358155,0.6569457342642118
0.026000000000000002,1.785022425043124,1.0,2659.1714319041043,0.25364187047515424,1.3276247099808756,0.933285468991246,0.2880239418518112,0.6577233718429438
0.0265,1.7845916523819256,1.0,2677.6524945503857,0.2578283513152846,1.3272602693861297,0.93522876676348,0.28800584940004087,0.6584844262797124
0.027,1.7841608797207276,1.0,2695.4149691265548,0.2619913479767433,1.3269029865267266,0.9370789164629,0.28798775694827056,0.6592297110966416
0.0275,1.7837301070595293,1.0,2712.4911431952974,0.2661309921869918,1.3265524963543662,0.9388418084304179,0.28796966449650024,0.6599600354742718
0.028,1.783299334398331,1.0,2728.91412738777,0.27024741567349164,1.3262084338207494,0.9405228744776439,0.2879515720447299,0.660676204413947
0.0285,1.7828685617371327,1.0,2744.7142927232685,0.27434074833035565,1.325870465686163,0.9421271334681142,0.28793347959295956,0.661378952785342
0.029,1.7824377890759344,1.0,2759.9192168128993,0.27841111938696267,1.325538290109951,0.9436592287151045,0.28791538714118925,0.6620689466590859
0.029500000000000002,1.7820070164147361,1.0,2774.565895634855,0.2824586634744044,1.3252115257454942,0.9451234481973259,0.28789729468941894,0.6627470137828054
0.03,1.781576243753538,1.0,2788.674772479684,0.28648350601397765,1.3248899459566443,0.9465237819125634,0.2878792022376486,0.6634136575774514
0.0305,1.7811454710923398,1.0,2802.2667300900434,0.29048577242697915,1.324573324107254,0.9478639302356746,0.28786110978587826,0.6640693790751515
0.031,1.7807146984311415,1.0,2815.3630651787116,0.2944655881347056,1.3242614335611744,0.9491473285996,0.28784301733410794,0.664714676992513
0.0315,1.7802839257699432,1.0,2827.985464084421,0.29842307855845357,1.3239540476822582,0.9503771697833274,0.28782492488233763,0.6653500478006416
0.032,1.779853153108745,1.0,2840.1559795676353,0.3023583691195199,1.3236509398343572,0.9515564240647559,0.28780683243056726,0.6659759857918919
0.0325,1.7794223804475469,1.0,2851.8970087444786,0.3062715852392012,1.3233518833813236,0.9526878574660627,0.28778873997879695,0.6665929831433384
0.033,1.7789916077863486,1.0,2863.229317239695,0.3101628506874707,1.3230566690365564,0.9537740498451784,0.28777064752702664,0.6672014942315208
0.0335,1.7785608351251503,1.0,2874.1678761664057,0.3140322853870498,1.3227651413980206,0.9548174133317867,0.2877525550752563,0.6678018606451396
0.034,1.778130062463952,1.0,2884.7416227541944,0.3178800219807752,1.3224770235839396,0.9558201903242438,0.287734462623486,0.6683946723866176
0.0345,1.7776992898027537,1.0,2894.963641332405,0.321706179162001,1.3221921813797062,0.9567844888206007,0.28771637017171564,0.6689802240363091
0.035,1.7772685171415554,1.0,2904.84719707092,0.32551087562408115,1.3219104805707145,0.9577122808788926,0.28769827771994533,0.6695588089883026
0.035500000000000004,1.7768377444803574,1.0,2914.405726432116,0.32929423006036984,1.3216317869423573,0.9586054129668269,0.287680185268175,0.6701307194778894
0.036000000000000004,1.776406971819159,1.0,2923.652828022783,0.3330563611642211,1.3213559662800283,0.9594656154096743,0.28766209281640465,0.6706962466078742
0.0365,1.7759761991579608,1.0,2932.6022538454026,0.336797387628989,1.321082884369121,0.960294511024284,0.28764400036463433,0.6712556803737428
0.037,1.7755454264967625,1.0,2941.267900948401,0.34051742814802755,1.3208124069950284,0.9610936230177053,0.287625907912864,0.6718093096876794
0.0375,1.7751146538355642,1.0,2949.6638034759635,0.34421660141469096,1.3205443999431443,0.9618643822205803,0.2876078154610937,0.6723574224014335
0.038,1.774683881174366,1.0,2957.804125117573,0.3478950261223332,1.320278728998862,0.9626081337180935,0.2875897230093234,0.6729003053280406
0.0385,1.7742531085131679,1.0,2965.6942528185036,0.3515528089578147,1.3200153375493773,0.9633261477865556,0.2875716305575531,0.6734380858837951
0.039,1.7738223358519696,1.0,2973.355305432047,0.3551900815331808,1.319754032580964,0.9640196127047979,0.2875535381057827,0.6739711691588386
0.0395,1.7733915631907713,1.0,2980.796775232955,0.35880695791632206,1.3194947234703343,0.9646896538460257,0.2875354456540124,0.6744997502379294
0.04,1.772960790529573,1.0,2988.0264320299957,0.36240354954608767,1.3192373352476499,0.9653373331104721,0.28751735320224203,0.6750239916580982
0.0405,1.7725300178683747,1.0,2995.0521126104068,0.3659799678613269,1.3189817929430734,0.9659636523459078,0.2874992607504717,0.6755440553916526
0.041,1.7720992452071767,1.0,3001.8817176091097,0.3695363243008892,1.318728021586767,0.9665695573764543,0.2874811682987014,0.6760601028551831
0.0415,1.7716684725459784,1.0,3008.5232085029124,0.3730727303036237,1.3184759462088924,0.9671559417205893,0.2874630758469311,0.67657229491821
0.042,1.77123769988478,1.0,3014.984604729089,0.3765892973083798,1.3182254918396121,0.9677236500253068,0.2874449833951608,0.6770807919114699
0.0425,1.7708069272235818,1.0,3021.273980928537,0.3800861367540068,1.3179765835090882,0.9682734812408054,0.2874268909433904,0.6775857536348465
0.043000000000000003,1.7703761545623835,1.0,3027.3994643139977,0.38356336007935404,1.3177291462474827,0.968806191557766,0.2874087984916201,0.6780873393649418
0.043500000000000004,1.7699453819011852,1.0,3033.3692321620974,0.38702107872327074,1.317483105084958,0.9693224971272008,0.2873907060398498,0.6785857078622879
0.044,1.7695146092399872,1.0,3039.1913481075703,0.3904594036928347,1.3172383864413242,0.9698230766243635,0.2873726135880795,0.6790810145666615
0.0445,1.7690838365787889,1.0,3044.865962940487,0.39387842666258244,1.3169949852203153,0.9703085759578798,0.2873545211363091,0.6795732759731252
0.045,1.7686530639175906,1.0,3050.4090644397443,0.3972782837325507,1.3167527602741482,0.9707796040567024,0.2873364286845388,0.680062783350472
0.0455,1.7682222912563923,1.0,3055.8248207828046,0.400659078468587,1.3165116725908454,0.971236741871863,0.2873183362327685,0.680549620898423
0.046,1.767791518595194,1.0,3061.117425053865,0.4040209144365389,1.3162716831584302,0.9716805411795211,0.28730024378099817,0.6810338725514462
0.0465,1.7673607459339957,1.0,3066.2910942769454,0.4073638952022539,1.3160327529649254,0.9721115263253458,0.2872821513292278,0.6815156219815384
0.047,1.7669299732727977,1.0,3071.3500684829946,0.4106881243315795,1.3157948429983537,0.972530195848576,0.2872640588774575,0.6819949526009093
0.0475,1.7664992006115994,1.0,3076.2986098102947,0.41399370539036306,1.3155579142467382,0.9729370239951154,0.28724596642568717,0.6824719475645671
0.048,1.766068427950401,1.0,3081.1410016390532,0.41728074194445225,1.3153219276981016,0.9733324621282229,0.28722787397391686,0.6829466897728098
0.0485,1.7656376552892028,1.0,3085.8815477594326,0.42054933755969454,1.315086844340467,0.9737169400446187,0.2872097815221465,0.683419261873617
0.049,1.7652068826280045,1.0,3090.5245715739093,0.4237995958019374,1.3148526251618575,0.9740908672031677,0.2871916890703762,0.6838897462649454
0.0495,1.7647761099668062,1.0,3095.074415332163,0.42703162023702834,1.3146192311502958,0.9744546338726953,0.28717359661860586,0.6843582250969285
0.05,1.7643453373056082,1.0,3099.535439401096,0.4302455144308148,1.3143866232938046,0.9748086122049513,0.28715550416683555,0.6848247802739778
0.0505,1.7639145646444099,1.0,3103.9120215677694,0.4334413819491444,1.3141547625804073,0.9751531572382347,0.28713741171506524,0.6852894934567855
0.051000000000000004,1.7634837919832116,1.0,3108.2070036402083,0.4366193178213097,1.3139236232241707,0.9754886077458675,0.28711931926329487,0.6857524195848499
0.051500000000000004,1.7630530193220133,1.0,3112.420465429152,0.4397794055342998,1.313693203051054,0.9758152874855691,0.28710122681152456,0.6862135661976092
0.052000000000000005,1.762622246660815,1.0,3116.5625514605663,0.4429217859459858,1.3134634143069395,0.9761335065075711,0.28708313435975424,0.6866731118974363
0.0525,1.762191473999617,1.0,3120.6352516180227,0.4460465536885393,1.313234238817582,0.976443560510947,0.2870650419079839,0.6871310957664861
0.053,1.7617607013384187,1.0,3124.640563919028,0.449153803394132,1.313005658408736,0.9767457322347224,0.28704694945621356,0.6875875567733218
0.0535,1.7613299286772204,1.0,3128.5804942711534,0.45224362969493553,1.3127776549061567,0.9770402921366852,0.28702885700444325,0.6880425337736134
0.054,1.760899156016022,1.0,3132.457056236365,0.4553161272231215,1.3125502101355986,0.9773274990310534,0.28701076455267294,0.6884960655108201
0.0545,1.7604683833548238,1.0,3136.2722708019382,0.4583713906108615,1.312323305922817,0.9776076006878248,0.2869926721009026,0.6889481906168446
0.055,1.7600376106936255,1.0,3140.0281661591557,0.4614095144903273,1.312096924093566,0.9778808343964132,0.28697457964913226,0.689398947612675
0.0555,1.7596068380324275,1.0,3143.7267774891507,0.46443059349369037,1.3118710464736012,0.9781474274959804,0.28695648719736194,0.6898483749089952
0.056,1.7591760653712292,1.0,3147.3701467559317,0.4674347222531225,1.3116456548886768,0.9784075978746929,0.28693839474559163,0.690296510806785
0.0565,1.7587452927100309,1.0,3150.960322506734,0.47042199540079527,1.311420731164548,0.978661554439964,0.28692030229382126,0.6907433934978899
0.057,1.7583145200488326,1.0,3154.4993596805375,0.4733925075688803,1.3111962571269693,0.9789094975615902,0.28690220984205095,0.6911890610655779
0.0575,1.7578837473876343,1.0,3157.989319422214,0.4763463533895492,1.3109722146016958,0.979151619489555,0.28688411739028064,0.6916335514850666
0.058,1.757452974726436,1.0,3161.432268905769,0.4792836274949737,1.3107485854144822,0.9793881047481372,0.2868660249385103,0.6920769026240378
0.0585,1.757022202065238,1.0,3164.830281163766,0.48220442451732537,1.3105253513910833,0.9796191305078497,0.28684793248674,0.6925191522431258
0.059000000000000004,1.7565914294040397,1.0,3168.1854349244372,0.4851088390887759,1.3103024943572539,0.9798448669366189,0.2868298400349697,0.6929603379963853
0.059500000000000004,1.7561606567428414,1.0,3171.4998144561846,0.4879969658414968,1.3100799961387488,0.9800654775315212,0.28681174758319933,0.6934004974317396
0.06,1.755729884081643,1.0,3174.772613118575,0.49086886528986884,1.3098578629717101,0.9802811180132631,0.286793655131429,0.6938396197532044
0.0605,1.7552991114204448,1.0,3178.007154059084,0.4937246572712956,1.3096360662981332,0.9804919409675832,0.28677556267965865,0.6942777629063075
0.061,1.7548683387592467,1.0,3181.206043442235,0.49656444907850467,1.3094145836615603,0.9806980924465402,0.28675747022788833,0.6947149726324724
0.0615,1.7544375660980485,1.0,3184.3701622773683,0.4993883259163579,1.309193407174372,0.9808997120110438,0.286739377776118,0.6951512658160172
0.062,1.7540067934368502,1.0,3187.500394071267,0.5021963729897171,1.3089725289489489,0.9810969339831687,0.2867212853243477,0.6955866592949329
0.0625,1.753576020775652,1.0,3190.5976247753474,0.5049886755034443,1.3087519410976711,0.9812898876821556,0.2867031928725774,0.6960211698610339
0.063,1.7531452481144536,1.0,3193.6627427339745,0.5077653186624012,1.3085316357329193,0.9814786976480772,0.2866851004208071,0.6964548142601059
0.0635,1.7527144754532553,1.0,3196.6966386344407,0.5105263876714498,1.3083116049670742,0.981663483853899,0.2866670079690367,0.6968876091920497
0.064,1.7522837027920573,1.0,3199.7002054585755,0.5132719677354518,1.3080918409125157,0.9818443619066235,0.2866489155172664,0.6973195713110238
0.0645,1.751852930130859,1.0,3202.6743384347733,0.5160021440592693,1.3078723356816249,0.9820214432381479,0.2866308230654961,0.6977507172255768
0.065,1.7514221574696607,1.0,3205.6199349925378,0.5187170018477639,1.3076530813867817,0.982194835286441,0.2866127306137257,0.6981810634987828
0.0655,1.7509913848084624,1.0,3208.537894717872,0.5214166263057978,1.307434070140367,0.9823646416675885,0.2865946381619554,0.6986106266483669
0.066,1.750560612147264,1.0,3211.4291193098006,0.5241011026382325,1.3072152940547612,0.9825309623392355,0.2865765457101851,0.6990394231468322
0.0665,1.7501298394860658,1.0,3214.2945125388774,0.5267705160499302,1.3069967452423445,0.9826938937559123,0.2865584532584148,0.6994674694215784
0.067,1.7496990668248678,1.0,3217.1349802064965,0.5294249517457527,1.3067784158154976,0.9828535290166995,0.28654036080664447,0.6998947818550181
0.0675,1.7492682941636695,1.0,3219.951430105875,0.5320644949305617,1.3065602978866009,0.9830099580056659,0.2865222683548741,0.7003213767846892
0.068,1.7488375215024712,1.0,3222.7447719847682,0.5346892308092193,1.306342383568035,0.9831632675254766,0.2865041759031038,0.7007472705033639
0.0685,1.748406748841273,1.0,3225.515917508565,0.5372992445865871,1.30612466497218,0.9833135414245506,0.2864860834513335,0.7011724792591535
0.069,1.7479759761800746,1.0,3228.2657802255862,0.5398946214675272,1.305907134211417,0.9834608607181234,0.2864679909995631,0.7015970192556062
0.0695,1.7475452035188765,1.0,3230.994850670984,0.542475435213579,1.305689786947634,0.9836053031788657,0.2864498985477928,0.7020208997318562
