Time [s],Phi [rad],STIM [ ],Fsee [N],Gamma [ ],Lcerel [ ],q [ ],Lmtc [m],fisomrel [ ]
0.0,1.8,1.0,18.02093323625613,0.00024058360708176552,1.3793337261147587,0.005015043368645544,0.288653,0.5411540951272107
0.0005,1.79999375,1.0,18.40540972602372,0.005848443432143046,1.3792881206137397,0.013593051723949038,0.2886527375,0.5412644182439326
0.001,1.799975,1.0,21.918370091854996,0.011424847597424544,1.3789077682615782,0.03682027426597134,0.28865195,0.5421840023948665
0.0015,1.79994375,1.0,31.73963404612556,0.01696997254528948,1.3779893929416933,0.07225374185737175,0.2886506375,0.5444005702282213
0.002,1.7999,1.0,54.98936356277557,0.022483993726244045,1.3762774458062177,0.116670139268242,0.2886488,0.5485181242906535
0.0025,1.79984375,1.0,99.45201876276478,0.027967085607813212,1.3738234088566301,0.1666959434775825,0.28864643749999996,0.5543879432104872
0.003,1.7997750000000001,1.0,163.97331639953768,0.0334194216803103,1.3711020074820288,0.2194669278194026,0.28864354999999997,0.5608523598303834
0.0035,1.79969375,1.0,241.07875666640894,0.0388411744580968,1.3684805170362448,0.2727863942373762,0.2886401375,0.5670347849639722
0.004,1.7996,1.0,325.0725525936254,0.04423251548979523,1.3660608553386735,0.325019509778186,0.2886362,0.5727023284079042
0.0045000000000000005,1.7994937500000001,1.0,412.99720022181435,0.04959361536366469,1.3638354683063856,0.37503089576250803,0.2886317375,0.5778818622521464
0.005,1.799375,1.0,503.2154415928669,0.054924643699467486,1.3617777046709754,0.422114838906851,0.28862675,0.5826431517952824
0.0055,1.79924375,1.0,594.6233042704428,0.0602257691863135,1.3598640707848715,0.4659023448415533,0.2886212375,0.5870467173410109
0.006,1.7991000000000001,1.0,686.35254709503,0.06549715955033292,1.358076812477717,0.5062684223181512,0.2886152,0.5911383812684883
0.006500000000000001,1.79894375,1.0,777.6898151391372,0.070738981564222,1.3564023188396823,0.5432530649942721,0.2886086375,0.5949534028242902
0.007,1.798775,1.0,868.0481424922509,0.0759514011512315,1.3548296872854466,0.577000221519026,0.28860155,0.59852006703097
0.0075,1.79859375,1.0,956.9362132566533,0.08113458307157512,1.3533500319762872,0.60771361178578,0.2885939375,0.601861463336597
0.008,1.7984,1.0,1043.9785155710886,0.08628869161193785,1.3519553945240252,0.6356257095119378,0.2885858,0.6049980875811153
0.0085,1.79819375,1.0,1128.8535435428564,0.09141388959962585,1.350639177130901,0.6609778807524429,0.2885771375,0.6079469625668517
0.009000000000000001,1.797975,1.0,1211.3159643499444,0.09651033909289329,1.3493953953752476,0.6840072106533144,0.28856795,0.6107233982480053
0.0095,1.79774375,1.0,1291.206804834533,0.10157820186314799,1.3482182909777654,0.7049387654303206,0.2885582375,0.6133419063409578
0.01,1.7975,1.0,1368.387632925775,0.10661763786629745,1.347103016457339,0.7239819408521322,0.288548,0.6158147192800263
0.0105,1.79724375,1.0,1442.7682252162208,0.1116288064274256,1.3460450592769073,0.7413283961171118,0.2885372375,0.6181531152743678
0.011,1.796975,1.0,1514.3105184871893,0.11661186619745043,1.3450400682403596,0.7571516884187188,0.28852595000000003,0.6203678294282142
0.0115,1.79669375,1.0,1583.0071445542142,0.12156697544975029,1.3440840194912311,0.7716079553906824,0.2885141375,0.6224687102383868
0.012,1.7964,1.0,1648.8418842704627,0.12649429019032118,1.3431735822747548,0.784837147210244,0.28850180000000003,0.6244639426935973
0.0125,1.79609375,1.0,1711.8391456663717,0.13139396639728268,1.3423054327723085,0.796964028139589,0.2884889375,0.6263615774699063
0.013000000000000001,1.7957750000000001,1.0,1772.0440265161947,0.13626615890842794,1.3414764371084407,0.8080996771568604,0.28847555,0.6281691418996338
0.0135,1.79544375,1.0,1829.5322033737832,0.14111102335973694,1.3406834886549988,0.818342827579236,0.2884616375,0.629894006880929
0.014,1.7951000000000001,1.0,1884.3424548214164,0.14592871180139513,1.3399242113438123,0.827781459951874,0.2884472,0.6315418703516811
0.0145,1.79474375,1.0,1936.536743872612,0.15071937626816798,1.339196231830837,0.8364937383352175,0.2884322375,0.6331183555859727
0.015,1.794375,1.0,1986.197073778932,0.15548316867851628,1.3384971914247934,0.8445491473048823,0.28841675,0.6346289904257869
0.0155,1.79399375,1.0,2033.4071520594432,0.16022023969372104,1.3378249185150592,0.8520095635590399,0.2884007375,0.6360788406578239
0.016,1.7936,1.0,2078.266220719041,0.1649307408238526,1.337177256151608,0.8589300989893305,0.2883842,0.6374728888203857
0.0165,1.7931937500000001,1.0,2120.8384373519634,0.16961481969967998,1.336552567719129,0.8653600497244076,0.2883671375,0.6388149526838682
0.017,1.792775,1.0,2161.200025169576,0.1742726239519722,1.335949216602312,0.871343427961568,0.28834955,0.6401088133427708
0.0175,1.7923437500000001,1.0,2199.43826421491,0.17890430121149836,1.3353655661858455,0.8769195864837657,0.2883314375,0.6413582175282121
0.018000000000000002,1.7919,1.0,2235.637286023357,0.18350999774369153,1.3348001129907539,0.8821238011968208,0.2883128,0.6425665954763344
0.0185,1.79144375,1.0,2269.8960025654283,0.1880898613546979,1.33425129405322,0.8869876976387742,0.2882936375,0.6437374758410326
0.019,1.790975,1.0,2302.288376288746,0.19264403625997736,1.3337178746174796,0.8915397673635364,0.28827395,0.6448736612270158
0.0195,1.79049375,1.0,2332.8837757910046,0.19717266540855383,1.3331987298620611,0.8958056719201798,0.2882537375,0.6459776990379759
0.02,1.79,1.0,2361.757321823496,0.20167589174945125,1.3326927349654933,0.8998085378964038,0.288233,0.6470521176695792
0.0205,1.78949375,1.0,2388.9894045359565,0.2061538582316936,1.332198765106305,0.9035692414700972,0.2882117375,0.6480994274931315
0.021,1.788975,1.0,2414.651575054218,0.21060670586650523,1.3317158274133667,0.9071066857077531,0.28818995000000003,0.6491218426130916
0.021500000000000002,1.78844375,1.0,2438.8309154917843,0.21503457837464388,1.3312428192404633,0.9104379673077002,0.2881676375,0.6501217943291766
0.022,1.7879,1.0,2461.589928195544,0.21943761501109746,1.330778911220217,0.9135786472468213,0.2881448,0.6511011221044891
0.0225,1.78734375,1.0,2482.98609130255,0.22381595374764235,1.3303233514857833,0.9165428754291677,0.28812143749999997,0.652061490635203
0.023,1.786775,1.0,2503.07959592981,0.22816973255605477,1.3298753881703171,0.9193435246476669,0.28809755,0.6530045544626359
0.0235,1.78619375,1.0,2521.933119170369,0.23249908940811098,1.329434269406974,0.921992323522651,0.28807313749999996,0.653931958355527
0.024,1.7856,1.0,2539.6079286972013,0.23680416159996856,1.328999278015442,0.9244999799850292,0.2880482,0.6548452648766514
0.0245,1.78499375,1.0,2556.1595778717997,0.24108508514888968,1.3285697694772036,0.9268762909135371,0.2880227375,0.655745875592147
0.025,1.784375,1.0,2571.6613983283887,0.2453419987799239,1.3281449491451498,0.9291301962913486,0.28799675,0.6566354985667318
0.025500000000000002,1.78374375,1.0,2586.1561712020125,0.24957503516791232,1.3277243242088774,0.9312699362485815,0.2879702375,0.6575152019191155
0.026000000000000002,1.7831000000000001,1.0,2599.687936176151,0.25378432698769593,1.3273074018579836,0.9333030710130458,0.2879432,0.6583860481153586
0.0265,1.78244375,1.0,2612.301886653241,0.2579700069141158,1.3268936892820653,0.935236546184246,0.2879156375,0.6592490940929865
0.027,1.781775,1.0,2624.044270310777,0.26213220762201306,1.32648269367072,0.937076750945364,0.28788755,0.6601053913696138
0.0275,1.7810937500000001,1.0,2634.9622950410994,0.2662710617862288,1.3260739222135445,0.9388295700529796,0.2878589375,0.6609559861360821
0.028,1.7804,1.0,2645.098203846013,0.27038669829586576,1.3256669359908007,0.9405004367260088,0.2878298,0.6618018074054967
0.0285,1.77969375,1.0,2654.5001902653066,0.27447925251626637,1.3252612481189743,0.9420943630265517,0.2878001375,0.6626438790564001
0.029,1.778975,1.0,2663.2015668494014,0.2785488521224701,1.3248565151903222,0.94361599908394,0.28776995,0.6634829226352039
0.029500000000000002,1.7782437500000001,1.0,2671.235418533571,0.28259562430985546,1.324452400887941,0.9450696487805734,0.2877392375,0.6643196414478661
0.03,1.7775,1.0,2678.635321151602,0.2866196962738011,1.3240485688949266,0.9464592992331933,0.287708,0.6651547353225447
0.0305,1.77674375,1.0,2685.435295982538,0.29062119520968555,1.3236446828943753,0.9477886481273865,0.2876762375,0.6659889006192579
0.031,1.775975,1.0,2691.669766805812,0.2946002483128875,1.3232404065693837,0.9490611283702692,0.28764395,0.6668228302323327
0.0315,1.7751937500000001,1.0,2697.3681941855543,0.2985569790818202,1.3228354522952401,0.950279935264592,0.2876111375,0.6676571133333156
0.032,1.7744,1.0,2702.55780059442,0.3024915115776732,1.3224295556652106,0.9514480443611897,0.2875778,0.6684922883722413
0.0325,1.77359375,1.0,2707.2813088339626,0.30640398240975986,1.322022313212675,0.9525682135235546,0.2875439375,0.6693291766363453
0.033,1.772775,1.0,2711.5588372914067,0.31029451189660795,1.3216135302168426,0.9536430331086921,0.28750955,0.6701681670327171
0.0335,1.7719437500000002,1.0,2715.410687437422,0.3141632203567452,1.3212030119569234,0.9546749197430365,0.2874746375,0.6710096463960478
0.034,1.7711000000000001,1.0,2718.857326525613,0.31801022810869944,1.3207905637121267,0.9556661300423225,0.2874392,0.6718539994682908
0.0345,1.7702437500000001,1.0,2721.919371132897,0.3218356554709984,1.3203759907616626,0.9566187730937225,0.2874032375,0.6727016088759028
0.035,1.7693750000000001,1.0,2724.6175715404393,0.3256396227621698,1.3199590983847402,0.957534821824914,0.28736675,0.6735528551046688
0.035500000000000004,1.76849375,1.0,2726.9727969554156,0.3294222503007414,1.3195396918605697,0.9584161233709726,0.2873297375,0.674408116472105
0.036000000000000004,1.7676,1.0,2729.0060215731364,0.33318365840524095,1.3191175764683603,0.959264408537847,0.2872922,0.6752677690974498
0.0365,1.76669375,1.0,2730.738311480091,0.3369239673941962,1.3186925574873218,0.9600813004504869,0.2872541375,0.6761321868692285
0.037,1.765775,1.0,2732.190812397426,0.34064329758613504,1.3182644401966641,0.9608683224642482,0.28721555,0.6770017414104081
0.0375,1.76484375,1.0,2733.371535014173,0.3443417583162204,1.3178331498029938,0.9616269147932118,0.2871764375,0.6778765589486853
0.038,1.7639,1.0,2734.3092392897092,0.34801948016809126,1.3173984235167857,0.9623584175440129,0.28713679999999997,0.6787571452457244
0.0385,1.76294375,1.0,2735.017285086066,0.3516765781126982,1.3169601388879186,0.9630641013748856,0.28709663750000003,0.6796437192479315
0.039,1.761975,1.0,2735.5068743992183,0.35531316505618804,1.316518193395893,0.9637451638552986,0.28705595,0.6805364580656892
0.0395,1.7609937500000001,1.0,2735.7892403822443,0.3589293539047075,1.3160724845202096,0.964402733112722,0.2870147375,0.6814355374018555
0.04,1.76,1.0,2735.875642951396,0.3625252575644034,1.3156229097403687,0.9650378725980909,0.286973,0.6823411315274972
0.0405,1.7589937500000001,1.0,2735.777364625076,0.3661009889414225,1.315169366535871,0.965651585475542,0.2869307375,0.6832534132569446
0.041,1.757975,1.0,2735.505706596335,0.3696566609419117,1.3147117523862166,0.9662448186696857,0.28688795,0.6841725539221832
0.0415,1.75694375,1.0,2735.071985037748,0.3731923864720177,1.3142499647709063,0.9668184666004418,0.2868446375,0.6850987233465694
0.042,1.7559,1.0,2734.4875276399475,0.37670827843788735,1.3137839011694403,0.9673733746325424,0.28680079999999997,0.6860320898178791
0.0425,1.75484375,1.0,2733.7636703830535,0.38020444974566736,1.3133134590613194,0.9679103422642145,0.2867564375,0.6869728200606855
0.043000000000000003,1.753775,1.0,2732.904792541375,0.38368100575996644,1.312838599168512,0.9684301300213694,0.28671155,0.6879209530302393
0.043500000000000004,1.75269375,1.0,2731.9250345816827,0.38713806393946965,1.3123591935950698,0.968933452828052,0.28666613750000003,0.6888767033693804
0.044,1.7516,1.0,2730.8356075551383,0.3905757364078403,1.3118751410531213,0.9694209893077953,0.2866202,0.6898402308453306
0.0445,1.75049375,1.0,2729.642529620293,0.39399412914345433,1.3113863874386726,0.9698933855484934,0.2865737375,0.6908115998657298
0.045,1.7493750000000001,1.0,2728.3518198941174,0.39739334812468713,1.3108928786477296,0.9703512543929047,0.28652675,0.6917908737440308
0.0455,1.74824375,1.0,2726.969497351951,0.40077349932991446,1.3103945605762988,0.9707951774692613,0.2864792375,0.6927781146831837
0.046,1.7471,1.0,2725.5015797929805,0.40413468873751196,1.3098913791203857,0.9712257070788791,0.2864312,0.6937733837591371
0.0465,1.7459437500000001,1.0,2723.9540828692097,0.4074770223258552,1.3093832801759966,0.9716433679521161,0.28638263750000004,0.694776740904148
0.047,1.744775,1.0,2722.3330191806062,0.4108006060733199,1.3088702096391374,0.9720486588830324,0.28633355,0.6957882448899086
0.0475,1.74359375,1.0,2720.64439743453,0.41410554595828175,1.3083521134058145,0.972442054252198,0.28628393750000003,0.6968079533104838
0.048,1.7424,1.0,2718.8942216701926,0.41739194795911627,1.3078289373720335,0.9728240054462866,0.2862338,0.6978359225650659
0.0485,1.74119375,1.0,2717.0869622891432,0.420659911299559,1.3073006413567902,0.9731949423172774,0.2861831375,0.6988721805539075
0.049,1.739975,1.0,2715.2273314691142,0.4239095408326168,1.3067671829397984,0.9735552748302868,0.28613195,0.6999167585177941
0.0495,1.73874375,1.0,2713.3218919854667,0.4271409514436657,1.3062285027863438,0.9739053936819417,0.2860802375,0.7009697196467928
0.05,1.7375,1.0,2711.373807112819,0.43035424199537464,1.3056845724936064,0.9742456715145831,0.286028,0.7020310654955393
0.0505,1.73624375,1.0,2709.3862367406605,0.4335495113504124,1.3051353636587664,0.9745764637654908,0.2859752375,0.703100796699083
0.051000000000000004,1.734975,1.0,2707.362337133964,0.43672685837144803,1.3045808478790035,0.9748981096115894,0.28592195,0.7041789129633524
0.051500000000000004,1.73369375,1.0,2705.305260710697,0.43988638192115026,1.3040209967514982,0.9752109328541888,0.2858681375,0.7052654130555661
0.052000000000000005,1.7324,1.0,2703.2181558380435,0.44302818086218804,1.3034557818734303,0.97551524274806,0.2858138,0.7063602947945955
0.0525,1.73109375,1.0,2701.1041666464416,0.44615235405723025,1.30288517484198,0.9758113347788013,0.28575893750000003,0.7074635550412729
0.053,1.729775,1.0,2698.966432860889,0.44925900036894584,1.3023091472543271,0.9760994913921432,0.28570355000000003,0.708575189688653
0.0535,1.72844375,1.0,2696.808089650982,0.45234821866000363,1.301727670707652,0.97637998267855,0.2856476375,0.7096951936522155
0.054,1.7271,1.0,2694.632267498091,0.45542010779307257,1.3011407167991342,0.9766530670162168,0.2855912,0.7108235608600244
0.0545,1.7257437500000001,1.0,2692.4420920810117,0.45847476663082154,1.3005482571259543,0.9769189916753199,0.2855342375,0.7119602842428292
0.055,1.724375,1.0,2690.2389120269795,0.4615122816420312,1.299950279510596,0.9771779931635597,0.28547675,0.7131053246859547
0.0555,1.72299375,1.0,2688.0228715303033,0.464532737735996,1.2993467827886267,0.9774302985293125,0.2854187375,0.7142586212822026
0.056,1.7216,1.0,2685.801000361628,0.4675362703317412,1.2987377027002345,0.9776761263409898,0.2853602,0.7154202327340125
0.0565,1.72019375,1.0,2683.574211742529,0.47052296968962043,1.2981230309505496,0.9779156851079838,0.28530113749999997,0.7165901097476328
0.057,1.718775,1.0,2681.3434174143463,0.4734929260699872,1.2975027592447033,0.9781491747669462,0.28524155,0.7177682023016203
0.0575,1.71734375,1.0,2679.1095276289507,0.4764462297331952,1.296876879287826,0.9783767871013948,0.2851814375,0.7189544596438826
0.058,1.7159,1.0,2676.873451141515,0.4793829709395981,1.2962453827850486,0.9785987061375193,0.2851208,0.7201488302887118
0.0585,1.71444375,1.0,2674.6360952043615,0.4823032399495494,1.2956082614415023,0.9788151085177221,0.2850596375,0.7213512620138152
0.059000000000000004,1.7129750000000001,1.0,2672.39836556249,0.48520712702340274,1.2949655069623174,0.9790261638533003,0.28499795,0.722561701857344
0.059500000000000004,1.71149375,1.0,2670.16116645048,0.4880947224215118,1.294317111052625,0.979232035057599,0.2849357375,0.7237800961149132
0.06,1.71,1.0,2667.925400591196,0.4909661164042302,1.293663065417556,0.9794328786608557,0.284873,0.7250063903366206
0.0605,1.7084937500000001,1.0,2665.69196919584,0.49382139923191154,1.293003361762241,0.9796288451078742,0.2848097375,0.7262405293240605
0.061,1.7069750000000001,1.0,2663.461771965483,0.4966606611649094,1.292337991791811,0.9798200790395952,0.28474595,0.7274824571273313
0.0615,1.7054437500000001,1.0,2661.235707094097,0.4994839924635775,1.2916669472113964,0.9800067195595449,0.2846816375,0.7287321170420424
0.062,1.7039,1.0,2659.0146712736314,0.5022914833882695,1.2909902197261285,0.9801889004860838,0.2846168,0.7299894516063121
0.0625,1.70234375,1.0,2656.7995596996047,0.5050832241993387,1.290307801041138,0.9803667505913164,0.2845514375,0.731254402597765
0.063,1.7007750000000001,1.0,2654.591266079201,0.5078593051571391,1.2896196828615556,0.9805403938274574,0.28448555,0.7325269110305228
0.0635,1.69919375,1.0,2652.3906826406273,0.510619816522024,1.288925856892512,0.9807099495414029,0.28441913750000003,0.733806917152193
0.064,1.6976,1.0,2650.198700143188,0.5133648485543474,1.2882263148391382,0.9808755326782052,0.2843522,0.7350943604408482
0.0645,1.69599375,1.0,2648.020559856727,0.5160944868489262,1.2875210082448356,0.9810372516192842,0.2842847375,0.7363892532457691
0.065,1.694375,1.0,2645.8530070682586,0.5188088143396706,1.2868099670103843,0.9811952145225211,0.28421675,0.7376914630851477
0.0655,1.69274375,1.0,2643.6949555851984,0.5215079164550549,1.2860932010578292,0.9813495248456002,0.2841482375,0.7390008938408308
0.066,1.6911,1.0,2641.5454460066544,0.5241918786098232,1.2853707191543224,0.9815002822907831,0.2840792,0.7403174510502067
0.0665,1.6894437500000001,1.0,2639.4065606526215,0.5268607858230896,1.2846425019656105,0.981647581623673,0.2840096375,0.7416410907996092
0.067,1.687775,1.0,2637.281723701362,0.5295147228835206,1.2839085177181313,0.9817915136438744,0.28393955,0.7429717907113952
0.0675,1.68609375,1.0,2635.166831086218,0.5321537733311125,1.2831688042307767,0.9819321692251591,0.2838689375,0.7443094015003573
0.068,1.6844006703526586,1.0,2633.0903503975546,0.5347780206473522,1.282423400687259,0.9820696361549507,0.2837978281548117,0.74565377150588
0.0685,1.6827047641060053,1.0,2631.478896635249,0.5373875479668367,1.2816724230776793,0.9822040028228797,0.2837266000924522,0.7470046112166737
0.069,1.6810088578593523,1.0,2630.421167734755,0.5399824382070041,1.2809163227016989,0.9823353704105868,0.2836553720300928,0.7483610320145249
0.0695,1.679312951612699,1.0,2629.874275544497,0.5425627730616774,1.2801554936202295,0.9824638340567853,0.28358414396773335,0.7497222557219565
0.07,1.6776170453660457,1.0,2629.7964492922806,0.5451286341228436,1.2793903211677724,0.9825894854173641,0.2835129159053739,0.7510875269061511
0.07050000000000001,1.6759211391193927,1.0,2630.1503446296406,0.5476801021699916,1.2786211509479122,0.982712411333827,0.2834416878430145,0.7524561678713672
0.07100000000000001,1.6742252328727394,1.0,2630.8931776519257,0.550217259408208,1.2778483798761615,0.9828326983340421,0.28337045978065506,0.7538274164546948
0.07150000000000001,1.6725293266260863,1.0,2631.9953941954586,0.5527401855199188,1.2770722830434469,0.9829504245334162,0.28329923171829563,0.7552007333198089
0.07200000000000001,1.670833420379433,1.0,2633.429786589092,0.555248959727343,1.276293114315936,0.9830656646111023,0.2832280036559362,0.7565756217525548
0.0725,1.66913751413278,1.0,2635.1691836401187,0.5577436612526999,1.2755111275597975,0.9831784909242791,0.28315677559357677,0.7579515898939063
0.073,1.6674416078861267,1.0,2637.1864340583393,0.5602243693182086,1.2747265766411995,0.9832889736022752,0.2830855475312173,0.7593281507876504
0.0735,1.6657457016394734,1.0,2639.464190449573,0.5626911597490242,1.273939624849322,0.9833971764067669,0.2830143194688579,0.7607049806677701
0.074,1.6640497953928204,1.0,2641.9668554360337,0.5651441157707664,1.2731506041732354,0.9835031690401805,0.2829430914064984,0.7620814650503713
0.0745,1.662353889146167,1.0,2644.675409541575,0.5675833149105266,1.2723596931819239,0.9836070120668533,0.282871863344139,0.763457262531404
