Time [s],Phi [rad],STIM [ ],Fsee [N],Gamma [ ],Lcerel [ ],q [ ],Lmtc [m],fisomrel [ ]
0.0,1.8,1.0,19.334747210505164,0.0011940409325026228,1.379189340106954,0.00536563571524083,0.288653,0.5415033301953215
0.0005,1.79999375,1.0,19.984767756971674,0.006796552615929962,1.3791168965318428,0.016551429607820082,0.2886527375,0.5416785037119389
0.001,1.799975,1.0,24.210585626151282,0.012367638638632748,1.378681040245765,0.04204192961236945,0.28865195,0.5427317275458716
0.0015,1.79994375,1.0,35.692411393162466,0.01790747527328544,1.377665979296336,0.07923372652121402,0.2886506375,0.5451798727109042
0.002,1.7999,1.0,62.16393139046433,0.023416237805488474,1.3758320719148993,0.12482906350863439,0.2886488,0.5495862682402869
0.0025,1.79984375,1.0,110.38564522760387,0.028894100535767304,1.3733163335951641,0.17550386030525716,0.28864643749999996,0.5555960302010974
0.003,1.7997750000000001,1.0,177.50615306663016,0.03434123678674045,1.3706100877688268,0.22850867747700535,0.28864354999999997,0.5620158253953524
0.0035,1.79969375,1.0,255.99539054290594,0.03975781891012159,1.3680311393315536,0.28174765826778864,0.2886401375,0.5680901801094342
0.004,1.7996,1.0,340.7258989540149,0.04514401828915976,1.3656534110882488,0.33367387128702597,0.2886362,0.5736530068862504
0.0045000000000000005,1.7994937500000001,1.0,429.06271069140377,0.05050000534846121,1.363463637667642,0.3832304720336701,0.2886317375,0.5787442094815215
0.005,1.799375,1.0,519.5010762931925,0.05582594956657286,1.361435691212185,0.4297755843636928,0.28862675,0.5834318913200576
0.0055,1.79924375,1.0,610.9769110844961,0.061122019446363,1.3595477525278845,0.4729880192733349,0.2886212375,0.5877723649622039
0.006,1.7991000000000001,1.0,702.6473641544768,0.06638838252427914,1.357783177202414,0.512775890619693,0.2886152,0.5918086674456187
0.006500000000000001,1.79894375,1.0,793.8351628492725,0.0716252055379519,1.3561287952014833,0.5492004874652654,0.2886086375,0.5955748763658799
0.007,1.798775,1.0,883.9499652534604,0.0768326539928828,1.3545745423568776,0.5824188425800996,0.28860155,0.5990972382411061
0.0075,1.79859375,1.0,972.5448719513554,0.0820108929530504,1.3531113875749985,0.6126411634877266,0.2885939375,0.602399068765495
0.008,1.7984,1.0,1059.2280146038008,0.08716008600014802,1.3517320785211406,0.6401029012330361,0.2885858,0.6054991866683614
0.0085,1.79819375,1.0,1143.6950631570671,0.09228039599765743,1.3504300904005797,0.6650454003785052,0.2885771375,0.6084143869318926
0.009000000000000001,1.797975,1.0,1225.7389441875293,0.097371985403255,1.3491991828999552,0.6877039610390009,0.28856795,0.6111604931824095
0.0095,1.79774375,1.0,1305.1775529465267,0.10243501490009826,1.3480341548024328,0.7083014343759286,0.2885582375,0.6137507241420799
0.01,1.7975,1.0,1381.886143143389,0.10746964458076898,1.3469301536509821,0.7270442497637765,0.288548,0.61619728471845
0.0105,1.79724375,1.0,1455.8006562498367,0.11247603420727642,1.3458824905158373,0.7441208907216771,0.2885372375,0.6185118072530668
0.011,1.796975,1.0,1526.8729689832621,0.11745434210090598,1.344887080597368,0.7597020165121903,0.28852595000000003,0.6207044057303079
0.0115,1.79669375,1.0,1595.079027989496,0.12240472533660024,1.3439402074144038,0.7739410227422573,0.2885141375,0.6227842274353856
0.012,1.7964,1.0,1660.4278066283923,0.12732734038278132,1.343038322838112,0.7869750855230107,0.28850180000000003,0.6247599141084671
0.0125,1.79609375,1.0,1722.970164368802,0.13222234423339774,1.3421778809866827,0.798926450264584,0.2884889375,0.6266399801130855
0.013000000000000001,1.7957750000000001,1.0,1782.738066873527,0.13708989126844595,1.3413559784023137,0.8099041116940042,0.28847555,0.6284314286001249
0.0135,1.79544375,1.0,1839.7702196632074,0.14193013474387836,1.3405699805532298,0.8200050253037869,0.2884616375,0.6301405878379229
0.014,1.7951000000000001,1.0,1894.1321813414675,0.14674322791564748,1.3398172529076557,0.8293153187328834,0.2884472,0.6317737073542549
0.0145,1.79474375,1.0,1945.8960090564299,0.15152932313269465,1.3390953547577156,0.8379115852016887,0.2884322375,0.6333365445846271
0.015,1.794375,1.0,1995.1592069367405,0.1562885731329922,1.3384018023752073,0.8458619037094257,0.28841675,0.6348348856798824
0.0155,1.79399375,1.0,2041.989087342816,0.16102112765353802,1.3377346361491311,0.8532270197365053,0.2884007375,0.6362733276314223
0.016,1.7936,1.0,2086.456772520626,0.1657271357714868,1.3370920202249688,0.8600610779915823,0.2883842,0.6376561540199275
0.0165,1.7931937500000001,1.0,2128.6472700874374,0.17040674656399316,1.3364721187482014,0.8664123660108071,0.2883671375,0.6389876062024753
0.017,1.792775,1.0,2168.643608574404,0.17506010800754068,1.335873245489319,0.8723240504823953,0.28834955,0.6402715655754837
0.0175,1.7923437500000001,1.0,2206.548392048904,0.17968736894592727,1.3352936281894856,0.8778347155716172,0.2883314375,0.6415120628046269
0.018000000000000002,1.7919,1.0,2242.4354807225745,0.18428867486435757,1.334731886893913,0.8829790271694775,0.2883128,0.6427122573228334
0.0185,1.79144375,1.0,2276.3785567154873,0.18886417056391902,1.3341867255365638,0.8877881061778722,0.2882936375,0.643875103555961
0.019,1.790975,1.0,2308.4586169864574,0.1934140008456992,1.3336568480514002,0.8922899166990022,0.28827395,0.6450035323609848
0.0195,1.79049375,1.0,2338.7564329773127,0.19793830957880576,1.3331410263273025,0.8965096431320907,0.2882537375,0.6461003079642589
0.02,1.79,1.0,2367.3590038395137,0.20243724135820695,1.332638029476327,0.9004699891406093,0.288233,0.6471681803128388
0.0205,1.78949375,1.0,2394.341671701974,0.20691093876704938,1.3321467924388894,0.904191491519774,0.2882117375,0.6482095289303486
0.021,1.788975,1.0,2419.767550915999,0.21135954203602056,1.331666412416324,0.9076927573236699,0.28818995000000003,0.6492263739632809
0.021500000000000002,1.78844375,1.0,2443.703605500465,0.215783191395808,1.331195986609965,0.9109906406108315,0.2881676375,0.6502207221092218
0.022,1.7879,1.0,2466.2203278628226,0.22018202707709922,1.3307346122211465,0.914100431784657,0.2881448,0.6511945672159689
0.0225,1.78734375,1.0,2487.384546218918,0.2245561877442254,1.3302814520499078,0.917036036369962,0.28812143749999997,0.6521497526524378
0.023,1.786775,1.0,2507.2675709374403,0.228905813921801,1.3298356532281241,0.9198101067281317,0.28809755,0.6530881436848746
0.0235,1.78619375,1.0,2525.931460046218,0.23323104393595567,1.3293964749265685,0.9224341937015211,0.28807313749999996,0.6540113593939749
0.024,1.7856,1.0,2543.4274745366984,0.237532012933211,1.3289632987273603,0.9249188600623194,0.2880482,0.6549207528393288
0.0245,1.78499375,1.0,2559.80871562889,0.24180885606008864,1.3285355062126187,0.9272737597521018,0.2880227375,0.6558176695077116
0.025,1.784375,1.0,2575.129969312476,0.24606170846311026,1.328112478964463,0.9295077285367206,0.28799675,0.6567034475376112
0.025500000000000002,1.78374375,1.0,2589.4475593669845,0.2502907052887975,1.3276935985650125,0.9316288645151173,0.2879702375,0.6575794179193638
0.026000000000000002,1.7831000000000001,1.0,2602.8092660336188,0.2544959790799026,1.3272783391462366,0.9336446135584751,0.2879432,0.6584467114977071
0.0265,1.78244375,1.0,2615.26977903467,0.2586776659755293,1.3268661215813875,0.9355618110728803,0.2879156375,0.6593065642931812
0.027,1.781775,1.0,2626.87909121619,0.2628358997672381,1.3264564206396943,0.9373867537171301,0.28788755,0.6601600938237213
0.0275,1.7810937500000001,1.0,2637.6738712209153,0.26697080989002214,1.3260488432087616,0.9391252603716458,0.2878589375,0.6610081372520038
0.028,1.7804,1.0,2647.6915513500066,0.27108252577887487,1.3256429961761944,0.9407826979799567,0.2878298,0.6618515275554562
0.0285,1.77969375,1.0,2656.970261565312,0.27517117686878967,1.3252384864295976,0.9423640225696825,0.2878001375,0.6626910935745678
0.029,1.778975,1.0,2665.548766918154,0.2792368925947598,1.324834920856576,0.9438738160559665,0.28776995,0.6635276600513458
0.029500000000000002,1.7782437500000001,1.0,2673.466408403893,0.2832798023917787,1.3244319063447345,0.9453163193069088,0.2877392375,0.6643620476579127
0.03,1.7775,1.0,2680.75630775758,0.28730003351099653,1.3240291115954417,0.946695469359354,0.287708,0.6651949452763675
0.0305,1.77674375,1.0,2687.4523710667727,0.29129771438793994,1.323626202102847,0.9480149180829116,0.2876762375,0.6660270450015535
0.031,1.775975,1.0,2693.5975294354535,0.295272975168187,1.323222764386987,0.9492780469290278,0.28764395,0.6668591982845482
0.0315,1.7751937500000001,1.0,2699.216463906276,0.2992259392629375,1.3228185553485525,0.9504880181978347,0.2876111375,0.6676919015391376
0.032,1.7744,1.0,2704.3341296939384,0.30315673008339117,1.3224133318882356,0.9516477741292004,0.2875778,0.6685256486630308
0.0325,1.77359375,1.0,2708.975730571312,0.3070654710407478,1.3220068509067282,0.9527600549061734,0.2875439375,0.6693609310240183
0.033,1.772775,1.0,2713.166694565197,0.31095228554620713,1.3215988693047218,0.9538274149787362,0.28750955,0.6701982374423612
0.0335,1.7719437500000002,1.0,2716.9326509626762,0.31481729701096894,1.321189143982908,0.9548522378825173,0.2874746375,0.6710380541694094
0.034,1.7711000000000001,1.0,2720.299408627622,0.31866062884623303,1.3207774318419785,0.9558367497072023,0.2874392,0.6718808648624517
0.0345,1.7702437500000001,1.0,2723.2880521819257,0.3224824006249628,1.3203635342218802,0.9567830352331032,0.2874032375,0.6727270597604151
0.035,1.7693750000000001,1.0,2725.9234948450926,0.3262827377449096,1.319947218827813,0.9576930427863647,0.28736675,0.6735770955495777
0.035500000000000004,1.76849375,1.0,2728.225659051275,0.330061760763941,1.3195282998501958,0.9585686004367484,0.2873297375,0.6744313316162097
0.036000000000000004,1.7676,1.0,2730.211283465961,0.3338195872072406,1.3191066213111764,0.9594114237188499,0.2872922,0.6752900645260378
0.0365,1.76669375,1.0,2731.8971891569604,0.33755633459999174,1.3186820272329027,0.9602231216393756,0.2872541375,0.6761535890265544
0.037,1.765775,1.0,2733.300269884979,0.3412721204673782,1.3182543616375226,0.9610052044891375,0.28721555,0.6770221980187914
0.0375,1.76484375,1.0,2734.4374829335366,0.3449670623345834,1.3178234685471841,0.961759090998386,0.2871764375,0.6778961825275417
0.038,1.7639,1.0,2735.3258404782973,0.3486412777267909,1.317389191984035,0.9624861148973132,0.28713679999999997,0.6787758316700299
0.0385,1.76294375,1.0,2735.9824014960154,0.35229488416918425,1.3169513759702232,0.9631875309371707,0.28709663750000003,0.6796614326230301
0.039,1.761975,1.0,2736.4091063037486,0.3559279837341233,1.3165100021333183,0.9638645301223298,0.28705595,0.680552992823874
0.0395,1.7609937500000001,1.0,2736.639540708459,0.3595407141839063,1.3160647651003345,0.9645182152602989,0.2870147375,0.681451097774459
0.04,1.76,1.0,2736.6838354686124,0.3631331871283345,1.3156155726822873,0.9651496402096446,0.286973,0.6823559001289279
0.0405,1.7589937500000001,1.0,2736.5510464239755,0.36670551298446563,1.315162342630036,0.9657597998608319,0.2869307375,0.6832675312115681
0.041,1.757975,1.0,2736.250246324435,0.37025780216935744,1.3147049926944407,0.9663496334384651,0.28688795,0.6841861210879847
0.0415,1.75694375,1.0,2735.7905219738172,0.3737901651000677,1.3142434406263612,0.9669200281910121,0.2868446375,0.6851117985437072
0.042,1.7559,1.0,2735.1809715231784,0.377302712193654,1.3137776041766576,0.9674718227992415,0.28680079999999997,0.6860446910623623
0.0425,1.75484375,1.0,2734.430701914832,0.3807955538671743,1.3133074010961894,0.9680058105274714,0.2867564375,0.6869849248034168
0.043000000000000003,1.753775,1.0,2733.548826474858,0.3842688005376861,1.3128327491358165,0.9685227421394681,0.28671155,0.6879326245794877
0.043500000000000004,1.75269375,1.0,2732.544462657669,0.38772256262224725,1.3123535660463992,0.9690233285987672,0.28666613750000003,0.6888879138332198
0.044,1.7516,1.0,2731.426729938758,0.39115695053791544,1.3118697695787966,0.9695082435713566,0.2866202,0.6898509146137382
0.0445,1.75049375,1.0,2730.20474785842,0.39457207470174843,1.3113812774838693,0.969978125747011,0.2865737375,0.6908217475526581
0.045,1.7493750000000001,1.0,2728.886544539779,0.397968041248924,1.3108880174183273,0.9704335811358814,0.28652675,0.6918005121993043
0.0455,1.74824375,1.0,2727.477788795577,0.4013449536333534,1.3103899384713644,0.9708751861792916,0.2864792375,0.692787264335914
0.046,1.7471,1.0,2725.9876225747316,0.4047029332796953,1.3098869581327937,0.9713034884333812,0.2864312,0.6937821211071562
0.0465,1.7459437500000001,1.0,2724.4209033329803,0.4080420829819603,1.3093790328189885,0.9717190084455875,0.28638263750000004,0.6947851213392451
0.047,1.744775,1.0,2722.782486417532,0.4113625055341592,1.3088661189463215,0.9721222410907374,0.28633355,0.6957963028285611
0.0475,1.74359375,1.0,2721.0772244122445,0.4146643037303026,1.308348172931166,0.9725136570751863,0.28628393750000003,0.6968157023278438
0.048,1.7424,1.0,2719.309966523086,0.4179475803644011,1.3078251511898948,0.9728937043392378,0.2862338,0.6978433555322653
0.0485,1.74119375,1.0,2717.4855580078715,0.4212124382304655,1.3072970101388812,0.9732628093656086,0.2861831375,0.6988792970653837
0.049,1.739975,1.0,2715.6088396463433,0.4244589801225063,1.3067637061944983,0.9736213784010379,0.28613195,0.699923560464973
0.0495,1.73874375,1.0,2713.68464725339,0.4276873088345343,1.306225195773119,0.9739697985975503,0.2860802375,0.7009761781687338
0.05,1.7375,1.0,2711.717811234176,0.4308975271605602,1.3056814352911161,0.9743084390793397,0.286028,0.7020371814998826
0.0505,1.73624375,1.0,2709.7131561809674,0.4340897378945945,1.3051323811648634,0.9746376519407479,0.2859752375,0.7031066006526165
0.051000000000000004,1.734975,1.0,2707.6755005128543,0.437264043830648,1.3045779898107333,0.9749577731803625,0.28592195,0.7041844646774645
0.051500000000000004,1.73369375,1.0,2705.6087260511267,0.44042054670443276,1.3040182261366506,0.9752691240081702,0.2858681375,0.7052707850023099
0.052000000000000005,1.7324,1.0,2703.5127968860747,0.44355934512169876,1.3034530907832769,0.9755720131597935,0.2858138,0.7063655028510087
0.0525,1.73109375,1.0,2701.3906368658736,0.44668053765080123,1.3028825573541092,0.9758667339358728,0.28575893750000003,0.7074686111308507
0.053,1.729775,1.0,2699.2456217649365,0.44978422245780636,1.302306595284357,0.9761535664127904,0.28570355000000003,0.7085801098455993
0.0535,1.72844375,1.0,2697.0811223873447,0.4528704977087801,1.3017251740092304,0.9764327784358798,0.2856476375,0.7096999979882004
0.054,1.7271,1.0,2694.899115219478,0.45593946143011,1.301138275672146,0.9767046270156724,0.2855912,0.7108282491237458
0.0545,1.7257437500000001,1.0,2692.7014132358345,0.4589912109463837,1.3005458838858293,0.9769693581520228,0.2855342375,0.7119648331609874
0.055,1.724375,1.0,2690.4911094690315,0.4620258425392505,1.2999479705184669,0.9772272065777082,0.28547675,0.7131097416513168
0.0555,1.72299375,1.0,2688.2686906285994,0.4650434521331321,1.299344531264574,0.9774783984989278,0.2854187375,0.7142629196492108
0.056,1.7216,1.0,2686.0411730281035,0.46804413532901085,1.298735501982549,0.9777231471356225,0.2853602,0.7154244255587833
0.0565,1.72019375,1.0,2683.805948762926,0.47102798722348677,1.2981209066467967,0.977961661916062,0.28530113749999997,0.7165941486610075
0.057,1.718775,1.0,2681.5644099985193,0.47399510192933186,1.2975007325893044,0.9781941414723548,0.28524155,0.7177720475409031
0.0575,1.717345255471461,1.0,2679.3900817849894,0.4769455733982979,1.296874985243723,0.9784207773510262,0.28518150072980136,0.7189580457160054
0.058,1.7159138903542248,1.0,2677.720537716215,0.4798794952571695,1.296243881447867,0.9786417652048147,0.28512138339487747,0.7201516667879533
0.0585,1.7144825252369886,1.0,2676.5930110402296,0.4827969600634865,1.295607806989311,0.9788573021799996,0.2850612660599535,0.7213521187722265
0.059000000000000004,1.7130511601197524,1.0,2675.967463476896,0.4856980592535065,1.2949671262808333,0.9790675763673,0.2850011487250296,0.7225586556556981
0.059500000000000004,1.7116197950025163,1.0,2675.810457920449,0.4885828826388299,1.2943221446710256,0.9792727651423526,0.2849410313901057,0.723770647819668
0.06,1.71018842988528,1.0,2676.057570521137,0.4914515285720459,1.2936734531846321,0.9794730551688777,0.2848809140551818,0.7249869352506815
0.0605,1.708757064768044,1.0,2676.683870608285,0.4943040857082075,1.2930212811701187,0.9796686057883298,0.28482079672025784,0.7262070433081066
0.061,1.7073256996508075,1.0,2677.6645000504463,0.49714064270236746,1.2923658579759507,0.9798595702768249,0.2847606793853339,0.727430500924701
0.0615,1.7058943345335713,1.0,2678.97465613961,0.4999612882095786,1.2917074129505937,0.9800460961285254,0.28470056205041,0.7286568406558414
0.062,1.7044629694163351,1.0,2680.5895756419977,0.5027661108848936,1.2910461754425129,0.9802283253237885,0.28464044471548605,0.7298855987254018
0.0625,1.703031604299099,1.0,2682.4845200157556,0.5055551993833655,1.2903823748001737,0.9804063945829937,0.28458032738056216,0.7311163150682763
0.063,1.7016002391818628,1.0,2684.634761793541,0.5083286423600469,1.2897162403720417,0.9805804356069191,0.2845202100456382,0.7323485333695452
0.0635,1.7001688740646266,1.0,2687.0155721326905,0.5110865284699908,1.2890480015065824,0.9807505753044621,0.2844600927107143,0.7335818011002894
0.064,1.6987375089473904,1.0,2689.607465102539,0.5138289439500346,1.2883778394281058,0.9809169333989989,0.2843999753757904,0.7348157580573267
0.0645,1.6973061438301542,1.0,2692.3906135307734,0.5165559772989329,1.2877059383747684,0.9810796256423243,0.2843398580408665,0.7360500415302741
0.065,1.6958747787129178,1.0,2695.345086783673,0.5192677170723639,1.2870324833479736,0.981238763719344,0.28427974070594253,0.7372842905073191
0.0655,1.6944434135956816,1.0,2698.4595277961134,0.5219642473201241,1.28635758072536,0.9813944511870699,0.28421962337101864,0.7385182906923435
0.066,1.6930120484784454,1.0,2701.7225672805052,0.5246456520920101,1.2856813368845668,0.9815467879784908,0.2841595060360947,0.7397518295785928
0.0665,1.6915806833612093,1.0,2705.122820438896,0.5273120154378184,1.2850038582032328,0.9816958705579498,0.2840993887011708,0.7409846964581364
0.067,1.690149318243973,1.0,2708.6488839242306,0.5299634214073453,1.2843252510589969,0.9818417920688313,0.28403927136624685,0.7422166824306071
0.0675,1.688717953126737,1.0,2712.28933305409,0.5325999540503875,1.283645621829498,0.9819846424739854,0.28397915403132296,0.7434475804112162
0.068,1.6872865880095007,1.0,2716.032719274037,0.5352216974167412,1.2829650768923753,0.982124508689296,0.283919036696399,0.7446771851380489
0.0685,1.6858552228922643,1.0,2719.868526127105,0.5378287345022679,1.2822837138996885,0.9822614742303512,0.2838589193614751,0.7459053088871135
0.069,1.6844238577750281,1.0,2723.793215881208,0.5404211420386541,1.28160156677165,0.9823956164381772,0.28379880202655117,0.7471318800757396
0.0695,1.682992492657792,1.0,2727.788400247371,0.5429990146337706,1.2809188043971516,0.9825270175025875,0.2837386846916273,0.7483565858930961
0.07,1.6815611275405558,1.0,2731.8494418678965,0.5455624313268687,1.2802354702610195,0.9826557501501555,0.2836785673567033,0.7495793405854123
0.07050000000000001,1.6801297624233196,1.0,2735.9716914393457,0.5481114711571995,1.2795516078480804,0.9827818847303356,0.28361845002177943,0.7508000591503605
0.07100000000000001,1.6786983973060834,1.0,2740.1504871819525,0.5506462131640144,1.2788672606431606,0.9829054893103116,0.2835583326868555,0.7520186573385828
0.07150000000000001,1.6772670321888472,1.0,2744.3811543515944,0.5531667363865647,1.2781824721310866,0.9830266297654616,0.2834982153519316,0.7532350516550932
0.07200000000000001,1.675835667071611,1.0,2748.659004792922,0.5556731198641016,1.2774972857966849,0.983145369865669,0.28343809801700764,0.7544491593605644
0.0725,1.6744043019543748,1.0,2752.9793365353144,0.5581654426358764,1.2768117451247816,0.9832617713577008,0.28337798068208375,0.7556608984724904
0.073,1.6729729368371387,1.0,2757.3374334298564,0.5606437837411404,1.2761258936002031,0.9833758940438517,0.2833178633471598,0.7568701877662287
0.0735,1.6715415717199023,1.0,2761.7285648289435,0.563108222219145,1.2754397747077764,0.9834877958570507,0.2832577460122359,0.7580769467759229
