Time [s],Phi [rad],STIM [ ],Fsee [N],Gamma [ ],Lcerel [ ],q [ ],Lmtc [m],fisomrel [ ]
0.0,1.8,1.0,17.968484471120977,1.0022298027596806e-05,1.3793395976321112,0.00500002677028089,0.288653,0.5411398905239413
0.0005,1.79999375,1.0,18.277701250387295,0.005619175389655596,1.3793022814752363,0.0129405737412276,0.2886527375,0.5412301634811245
0.001,1.799975,1.0,21.619264763899643,0.011196865567362622,1.3789382119081164,0.035608685788770536,0.28865195,0.5421104322572687
0.0015,1.79994375,1.0,31.070054479047446,0.016743269314078168,1.378046133998194,0.07060185221095401,0.2886506375,0.5442637773246797
0.002,1.7999,1.0,53.583029969400535,0.022258562121084628,1.3763680900290054,0.1147180101506535,0.2886488,0.5483005765558625
0.0025,1.79984375,1.0,97.1192771541794,0.02774291849557287,1.3739351508995101,0.16457486406787303,0.28864643749999996,0.5541215016637775
0.003,1.7997750000000001,1.0,160.958360002921,0.03319651196836665,1.3712143365252858,0.21728042567594308,0.28864354999999997,0.5605864679786093
0.0035,1.79969375,1.0,237.6834007935142,0.038619515093509214,1.3685847321000544,0.27061286149338265,0.2886401375,0.5667898445877907
0.004,1.7996,1.0,321.4667622164487,0.044012099459046654,1.3661560926377847,0.32291577650314834,0.2886362,0.572479961174203
0.0045000000000000005,1.7994937500000001,1.0,409.2677005053621,0.04937443569221228,1.3639228153469334,0.3730344846934133,0.2886317375,0.5776791596618681
0.005,1.799375,1.0,499.4134079705105,0.05470669345051006,1.361858344390997,0.420247440541383,0.28862675,0.5824570746001485
0.0055,1.79924375,1.0,590.7902975568285,0.06000904146923035,1.3599388373743209,0.464173680661449,0.2886212375,0.5868751063444586
0.006,1.7991000000000001,1.0,682.517959216661,0.06528164750449197,1.3581464174578464,0.5046799472521944,0.2886152,0.5909794121878509
0.006500000000000001,1.79894375,1.0,773.8811627939829,0.07052467838895238,1.3564672552401331,0.5418007473402527,0.2886086375,0.5948057906299931
0.007,1.798775,1.0,864.2856630833356,0.07573830001536333,1.354890397388987,0.575676771041245,0.28860155,0.5983826716871394
0.0075,1.79859375,1.0,953.2431540455472,0.0809226773463222,1.3534067801350034,0.6065099074273183,0.2885939375,0.6017335706460759
0.008,1.7984,1.0,1040.342530468098,0.08607797391712367,1.35200888079613,0.634532189769514,0.2885858,0.6048780224510715
0.0085,1.79819375,1.0,1125.311803481021,0.0912043539963187,1.3506892758139062,0.6599844508021586,0.2885771375,0.6078349229244835
0.009000000000000001,1.797975,1.0,1207.9004949928571,0.09630197961189696,1.3494420307545179,0.6831041898331552,0.28856795,0.6106194743053528
0.0095,1.79774375,1.0,1287.8952588828747,0.10137101112457976,1.3482620834019416,0.704117456698898,0.2885582375,0.613244646889474
0.01,1.7975,1.0,1365.1681182318928,0.1064116088950884,1.3471443715401543,0.7232342212306849,0.288548,0.6157231674361967
0.0105,1.79724375,1.0,1439.6547313169274,0.11142393298956677,1.3460840060611188,0.740646690530884,0.2885372375,0.6180671579996413
0.011,1.796975,1.0,1511.3142370632781,0.11640814228896008,1.345076651087171,0.7565291757118333,0.28852595000000003,0.6202873242170373
0.0115,1.79669375,1.0,1580.1145597341438,0.12136439400810785,1.344118560146554,0.7710386464108402,0.2885141375,0.6223929099574699
0.012,1.7964,1.0,1646.0544609023257,0.1262928448426455,1.3432061948033607,0.7843156047055728,0.28850180000000003,0.6243925632927221
0.0125,1.79609375,1.0,1709.1694784504693,0.1311936511365369,1.3423360864405451,0.7964853500450324,0.2884889375,0.6262946553589657
0.013000000000000001,1.7957750000000001,1.0,1769.498775517866,0.136066968060958,1.341505160569732,0.8076595302738484,0.28847555,0.6281065857915868
0.0135,1.79544375,1.0,1827.0822906604626,0.14091294922433228,1.3407106977078018,0.8179375082597558,0.2884616375,0.6298348866947159
0.014,1.7951000000000001,1.0,1881.9817047074384,0.1457317477860082,1.3399500454576228,0.8274075768098642,0.2884472,0.6314858628614803
0.0145,1.79474375,1.0,1934.2806870021252,0.1505235170491148,1.3392205847537142,0.8361481918899121,0.2884322375,0.6330656724469013
0.015,1.794375,1.0,1984.0582936873661,0.15528840915015554,1.338519987459199,0.8442291924487988,0.28841675,0.6345797770746929
0.0155,1.79399375,1.0,2031.3755501326352,0.16002657368147996,1.3378463189371201,0.8517128337424716,0.2884007375,0.6360327320811152
0.016,1.7936,1.0,2076.3094313956612,0.16473816023543747,1.3371976445505198,0.8586545530522806,0.2883842,0.6374290449922873
0.0165,1.7931937500000001,1.0,2118.9513677067216,0.16942331839040453,1.3365720310942208,0.8651037784223126,0.2883671375,0.6387731756540524
0.017,1.792775,1.0,2159.385640209408,0.17408219591727025,1.3359677545013484,0.8711046997547992,0.28834955,0.6400690941815106
0.0175,1.7923437500000001,1.0,2197.7171279899494,0.17871494245116828,1.33538299756393,0.876696803208314,0.2883314375,0.6413209341359469
0.018000000000000002,1.7919,1.0,2234.011936654939,0.18332170301955414,1.3348164402161937,0.8819155792579689,0.2883128,0.6425317326561096
0.0185,1.79144375,1.0,2268.3443836996425,0.18790262264988328,1.3342667623923674,0.8867928560234011,0.2882936375,0.643704501147081
0.019,1.790975,1.0,2300.7963199413043,0.19245784636961127,1.3337326440266797,0.891357223478499,0.28827395,0.6448422267568925
0.0195,1.79049375,1.0,2331.4496525203485,0.19698751829433922,1.3332128322958634,0.8956344206009245,0.2882537375,0.6459477308462016
0.02,1.79,1.0,2360.3910395497546,0.20149178294688963,1.3327060877856705,0.8996476467436565,0.288233,0.647023785555975
0.0205,1.78949375,1.0,2387.70087512897,0.20597078371512242,1.332211285937864,0.903417868501989,0.2882117375,0.6480729001770112
0.021,1.788975,1.0,2413.440619540923,0.21042466078262312,1.3317275316418393,0.9069640900110963,0.28818995000000003,0.6490970814758052
0.021500000000000002,1.78844375,1.0,2437.675634974498,0.21485355433297723,1.3312539297869912,0.9103035191723662,0.2881676375,0.6500983227062345
0.022,1.7879,1.0,2460.47486312434,0.21925760454977025,1.3307895852627145,0.9134517621879842,0.2881448,0.6510786042146726
0.0225,1.78734375,1.0,2481.9094384596615,0.22363695142982007,1.3303336132731778,0.9164229967566688,0.28812143749999997,0.6520398722636691
0.023,1.786775,1.0,2502.0387110565107,0.22799173248541688,1.3298852691021168,0.9192301465668842,0.28809755,0.6529837666754592
0.0235,1.78619375,1.0,2520.9470325217794,0.23232208930003906,1.3294435950359549,0.9218849480673177,0.28807313749999996,0.6539123650822251
0.024,1.7856,1.0,2538.6825769582515,0.23662815689693026,1.3290079986974883,0.924398173928774,0.2880482,0.6548269668146478
0.0245,1.78499375,1.0,2555.295343838173,0.24091007029933417,1.3285778877095122,0.9267796668375532,0.2880227375,0.6557288638659284
0.025,1.784375,1.0,2570.8370079259294,0.24516796453049447,1.3281526696948225,0.9290384325326835,0.28799675,0.6566193411102064
0.025500000000000002,1.78374375,1.0,2585.360776981391,0.2494019746136548,1.3277317522762149,0.931182722404949,0.2879702375,0.6574996764986025
0.026000000000000002,1.7831000000000001,1.0,2598.9190225861303,0.2536122350021077,1.3273145638927029,0.933220110073898,0.2879432,0.6583710977797506
0.0265,1.78244375,1.0,2611.55750060202,0.2577988781851245,1.3269006060764288,0.9351575640804556,0.2879156375,0.6592346739377026
0.027,1.781775,1.0,2623.33848670345,0.26196204058333117,1.3264892370571961,0.9370014738870902,0.28788755,0.6600917668552615
0.0275,1.7810937500000001,1.0,2634.2986014282897,0.2661018518170537,1.3260800625923466,0.9387577591997339,0.2878589375,0.6609432167722301
0.028,1.7804,1.0,2644.4752430988647,0.27021844150661783,1.3256726884392218,0.9404318785611656,0.2878298,0.6617898597090867
0.0285,1.77969375,1.0,2653.9065210186127,0.27431193927234937,1.3252667203551642,0.9420288713277697,0.2878001375,0.6626325275172047
0.029,1.778975,1.0,2662.6311921146357,0.2783824747345742,1.3248617640975153,0.9435533953193218,0.28776995,0.6634720479191656
0.029500000000000002,1.7782437500000001,1.0,2670.6886010259223,0.28243017751361815,1.3244574254236172,0.9450097606349168,0.2877392375,0.6643092445391514
0.03,1.7775,1.0,2678.108919961438,0.2864551729199914,1.3240533991357404,0.9464019704670413,0.287708,0.6651447528972338
0.0305,1.77674375,1.0,2684.936309274738,0.2904575939762069,1.32364925576784,0.9477337235821556,0.2876762375,0.6659794618651889
0.031,1.775975,1.0,2691.2034794133074,0.29443756790239495,1.323244674810772,0.949008465858009,0.28764395,0.6668140312706576
0.0315,1.7751937500000001,1.0,2696.9360297507296,0.2983952183451345,1.3228394039926463,0.9502294069627646,0.2876111375,0.6676489771354366
0.032,1.7744,1.0,2702.1598460137325,0.30233066895100447,1.3224331910415725,0.9513995326005086,0.2875778,0.6684848128659082
0.0325,1.77359375,1.0,2706.901073271703,0.30624404336658384,1.3220257836856601,0.9525216228819262,0.2875439375,0.6693220492399121
0.033,1.772775,1.0,2711.186090336663,0.3101354652384515,1.321616929653019,0.9535982689767322,0.28750955,0.6701611943895571
0.0335,1.7719437500000002,1.0,2715.0414855747886,0.3140050582131864,1.3212063766717586,0.9546318882269248,0.2874746375,0.6710027537799756
0.034,1.7711000000000001,1.0,2718.4940341285583,0.31785294593736757,1.3207938724699886,0.9556247378795053,0.2874392,0.6718472301840201
0.0345,1.7702437500000001,1.0,2721.559781465654,0.321679246214273,1.3203792639522827,0.9565789369746253,0.2874032375,0.6726949210120969
0.035,1.7693750000000001,1.0,2724.2691519443824,0.32548408701485254,1.3199622683248662,0.9574964562144844,0.28736675,0.6735463866339488
0.035500000000000004,1.76849375,1.0,2726.6452792884465,0.3292675900235842,1.3195426703409765,0.958379146223883,0.2873297375,0.6744020466561161
0.036000000000000004,1.7676,1.0,2728.7040644050803,0.3330298723847453,1.319120321469244,0.9592287468779258,0.2872922,0.675262182478847
0.0365,1.76669375,1.0,2730.4614905338794,0.33677105124261303,1.3186950731782978,0.9600468897309642,0.2872541375,0.6761270737623706
0.037,1.765775,1.0,2731.9336139596876,0.34049124374146483,1.3182667769367682,0.960835105979952,0.28721555,0.6769969984001322
0.0375,1.76484375,1.0,2733.136555215282,0.3441905670255779,1.3178352842132848,0.961594833756857,0.2871764375,0.6778722324906266
0.038,1.7639,1.0,2734.0864907728023,0.3478691382392295,1.3174004464764772,0.9623274248134484,0.28713679999999997,0.6787530503078218
0.0385,1.76294375,1.0,2734.7996452245125,0.3515270745266969,1.3169621151949755,0.9630341506552158,0.28709663750000003,0.6796397242701756
0.039,1.761975,1.0,2735.2922839521784,0.35516449303225744,1.3165201418374095,0.9637162081753138,0.28705595,0.6805325249082468
0.0395,1.7609937500000001,1.0,2735.572992349963,0.3587815053381586,1.3160744479112565,0.9643747301577188,0.2870147375,0.6814315796479413
0.04,1.76,1.0,2735.6596298351856,0.3623782318540475,1.3156248709675173,0.9650107785175728,0.286973,0.682337183758731
0.0405,1.7589937500000001,1.0,2735.5668263960342,0.3659547877316763,1.3151712780887812,0.9656253565794051,0.2869307375,0.6832495710072837
0.041,1.757975,1.0,2735.3040419547037,0.369511283699701,1.3147135834620418,0.9662194147049626,0.28688795,0.6841688787770422
0.0415,1.75694375,1.0,2734.8807510656843,0.3730478304867774,1.3142517012742934,0.9667938505428,0.2868446375,0.6850952431320545
0.042,1.7559,1.0,2734.306440061182,0.37656453882156155,1.3137855457125291,0.9673495124927309,0.28680079999999997,0.686028798794293
0.0425,1.75484375,1.0,2733.5906043592877,0.38006151943270927,1.3133150309637431,0.9678872029083038,0.2867564375,0.6869696791204996
0.043000000000000003,1.753775,1.0,2732.7427459352516,0.38353888304887657,1.3128400712149293,0.9684076810595722,0.28671155,0.687918016078565
0.043500000000000004,1.75269375,1.0,2731.7723709573343,0.3869967403987193,1.312360580653081,0.9689116658763571,0.28666613750000003,0.688873940223438
0.044,1.7516,1.0,2730.688987584092,0.3904352022108933,1.3118764734651922,0.9693998384902994,0.2866202,0.6898375806725614
0.0445,1.75049375,1.0,2729.49609778809,0.3938543689635484,1.311387718431794,0.9698728473231915,0.2865737375,0.6908089566640365
0.045,1.7493750000000001,1.0,2728.2063153479303,0.3972543597827905,1.310894201524972,0.9703313037843363,0.28652675,0.6917882508231826
0.0455,1.74824375,1.0,2726.8291023809566,0.40063528701784473,1.310395837321927,0.9707757892830898,0.2864792375,0.6927755872870529
0.046,1.7471,1.0,2725.369232471469,0.4039972544080101,1.3098925830042334,0.9712068578655928,0.2864312,0.6937710044609832
0.0465,1.7459437500000001,1.0,2723.831478101129,0.4073403656925854,1.3093843957534648,0.9716250359172116,0.28638263750000004,0.6947745397457382
0.047,1.744775,1.0,2722.2206099520176,0.41066472461086967,1.3088712327511958,0.9720308238028407,0.28633355,0.6957862295240964
0.0475,1.74359375,1.0,2720.541396251663,0.41397043490216173,1.308353051179,0.9724246973949766,0.28628393750000003,0.6968061091473245
0.048,1.7424,1.0,2718.7986021567463,0.41725760030576053,1.3078298082184519,0.97280710949822,0.2862338,0.697834212921528
0.0485,1.74119375,1.0,2716.996989179719,0.42052632456096495,1.3073014610511255,0.9731784911781286,0.2861831375,0.698870574093889
0.049,1.739975,1.0,2715.141314653974,0.42377671140707385,1.3067679668585948,0.9735392530016669,0.28613195,0.6999152248387887
0.0495,1.73874375,1.0,2713.2363312410725,0.4270088645833862,1.3062292828224338,0.9738897861958907,0.2860802375,0.700968196243807
0.05,1.7375,1.0,2711.2867864782975,0.4302228878292009,1.3056853661242167,0.9742304637309521,0.286028,0.7020295182956109
0.0505,1.73624375,1.0,2709.297422366264,0.4334188848838168,1.3051361739455178,0.9745616413330047,0.2859752375,0.7030992198657229
0.051000000000000004,1.734975,1.0,2707.2714018957367,0.4365969368338738,1.3045816778253974,0.9748836568415068,0.28592195,0.7041773008069703
0.051500000000000004,1.73369375,1.0,2705.2165599286827,0.4397571742937723,1.3040218066120557,0.9751968355025523,0.2858681375,0.7052638428072124
0.052000000000000005,1.7324,1.0,2703.1351246203153,0.4428996946810449,1.30345654026164,0.9755014875391287,0.2858138,0.7063588270804708
0.0525,1.73109375,1.0,2701.0291499581613,0.446024593927249,1.3028858602948745,0.975797909304077,0.28575893750000003,0.7074622309739597
0.053,1.729775,1.0,2698.900687153093,0.44913196796394234,1.302309748232483,0.9760863840768276,0.28570355000000003,0.7085740310064181
0.0535,1.72844375,1.0,2696.7517845480206,0.4522219127226822,1.3017281855951899,0.9763671827497058,0.2856476375,0.7096942028617177
0.054,1.7271,1.0,2694.58448753487,0.45529452413502614,1.3011411539037185,0.9766405644725461,0.2855912,0.7108227213824518
0.0545,1.7257437500000001,1.0,2692.400838478054,0.4583498981325317,1.3005486346787936,0.9769067772584819,0.2855342375,0.7119595605634984
0.055,1.724375,1.0,2690.2028766463054,0.4613881306467563,1.2999506094411386,0.9771660585535535,0.28547675,0.7131046935455662
0.0555,1.72299375,1.0,2687.992638152202,0.4644093176092575,1.2993470597114778,0.9774186357725838,0.2854187375,0.7142580926087148
0.056,1.7216,1.0,2685.772155898486,0.46741355495159287,1.298737967010535,0.9776647268035739,0.2853602,0.7154197291658562
0.0565,1.72019375,1.0,2683.5434595326715,0.4704009386053198,1.2981233128590344,0.9779045404827205,0.28530113749999997,0.7165895737562319
0.057,1.718775,1.0,2681.308575408929,0.4733715645019958,1.2975030787777,0.978138277041983,0.28524155,0.7177675960388701
0.0575,1.71734375,1.0,2679.0695265574736,0.47632552857317845,1.2968772462872558,0.978366128531006,0.2851814375,0.7189537647860207
0.058,1.7159,1.0,2676.8264520284597,0.47926291436236484,1.296245814170035,0.9785882791084924,0.2851208,0.7201480152638171
0.0585,1.71444375,1.0,2674.5766470006515,0.4821837892153586,1.295608807320238,0.9788049056245909,0.2850596375,0.7213502328912831
0.059000000000000004,1.7129750000000001,1.0,2672.3300615147514,0.4850883035918623,1.2949661344222454,0.9790161785250792,0.28499795,0.7225605215050952
0.059500000000000004,1.71149375,1.0,2670.0871915587377,0.4879765441688162,1.2943177908914867,0.9792222608469489,0.2849357375,0.7237788200406732
0.06,1.71,1.0,2667.848532286502,0.4908485976231608,1.293663772143392,0.9794233092456489,0.284873,0.7250050667427105
0.0605,1.7084937500000001,1.0,2665.6145780208026,0.4937045506318365,1.2930040735933912,0.9796194742923758,0.2848097375,0.726239199163516
0.061,1.7069750000000001,1.0,2663.385822256321,0.49654448987178357,1.2923386906569143,0.9798109007552981,0.28474595,0.7274811541613551
0.0615,1.7054437500000001,1.0,2661.162757663486,0.49936850201994254,1.2916676187493914,0.9799977278656968,0.2846816375,0.7287308678987872
0.062,1.7039,1.0,2658.945876093113,0.5021766737532537,1.2909908532862522,0.9801800895699417,0.2846168,0.7299882758410041
0.0625,1.70234375,1.0,2656.735668580311,0.5049690917486575,1.2903083896829266,0.9803581147681574,0.2845514375,0.7312533127541647
0.063,1.7007750000000001,1.0,2654.5326253502863,0.5077458426830942,1.2896202233548448,0.9805319275403737,0.28448555,0.7325259127037302
0.0635,1.69919375,1.0,2652.3372358237616,0.5105070132335042,1.2889263497174366,0.9807016473609083,0.28441913750000003,0.7338060090527982
0.064,1.6976,1.0,2650.1499886228057,0.5132526900768282,1.2882267641861318,0.9808673893016728,0.2843522,0.7350935344604337
0.0645,1.69599375,1.0,2647.971371577866,0.5159829598900062,1.2875214621763604,0.9810292642250534,0.2842847375,0.7363884208799991
0.065,1.694375,1.0,2645.8018717344307,0.5186979093499787,1.2868104391035526,0.9811873789669718,0.28421675,0.7376905995574852
0.0655,1.69274375,1.0,2643.6419753604446,0.5213976251336863,1.2860936903831384,0.981341836510692,0.2841482375,0.7390000010298372
0.066,1.6911,1.0,2641.4921679547106,0.524082193918069,1.2853712114305471,0.9814927361519062,0.2840792,0.7403165551232844
0.0665,1.6894437500000001,1.0,2639.352934254885,0.5267517023800675,1.2846429976612093,0.981640173655595,0.2840096375,0.7416401909516608
0.067,1.687775,1.0,2637.2247582463556,0.529406237196622,1.2839090444905545,0.9817842414051264,0.28393955,0.7429708369147332
0.0675,1.68609375,1.0,2635.108123171945,0.5320458850446732,1.2831693473340129,0.9819250285440314,0.2838689375,0.7443084206965216
0.068,1.6844000000000001,1.0,2633.003511541334,0.534670732601161,1.2824239016070145,0.9820626211108603,0.2837978,0.7456528692636206
0.0685,1.68269375,1.0,2630.912286483021,0.537280816642346,1.2816726945652093,0.9821970985453635,0.2837261375,0.7470041235216018
0.069,1.680975,1.0,2628.8334269300813,0.5398762773294131,1.2809157355272247,0.9823285452603137,0.28365395,0.748362083970658
0.0695,1.67924375,1.0,2626.7667633665933,0.5424571971616219,1.280153025936987,0.982457038726075,0.28358123749999997,0.7497266647268809
0.07,1.6775,1.0,2624.712222279103,0.5450236534539917,1.2793845663515127,0.9825826534258847,0.283508,0.7510977808819427
0.07050000000000001,1.67574375,1.0,2622.669730321607,0.5475757235215424,1.278610357327817,0.9827054613426112,0.2834342375,0.7524753469058233
0.07100000000000001,1.673975,1.0,2620.639214314037,0.5501134846792934,1.277830399422916,0.9828255320580562,0.28335995,0.7538592766470118
0.07150000000000001,1.67219375,1.0,2618.6206012412968,0.5526370142422644,1.277044693193826,0.9829429328476581,0.2832851375,0.7552494833327131
0.07200000000000001,1.6704,1.0,2616.6138182519835,0.5551463895254749,1.2762532391975623,0.9830577287708443,0.2832098,0.7566458795690512
0.0725,1.66859375,1.0,2614.618792656733,0.5576416878439445,1.275456037991141,0.9831699827572541,0.2831339375,0.7580483773412725
0.073,1.6667750000000001,1.0,2612.6354519274696,0.5601229865126929,1.274653090131578,0.9832797556890497,0.28305755,0.7594568880139518
0.0735,1.66494375,1.0,2610.6637236957004,0.5625903628467397,1.2738443961758894,0.9833871064795143,0.2829806375,0.7608713223311943
0.074,1.6631,1.0,2608.7035357515197,0.5650438941611043,1.2730299566810905,0.9834920921481329,0.2829032,0.7622915904168426
0.0745,1.6612437500000001,1.0,2606.754816042304,0.5674836577708064,1.2722097722041976,0.9835947678923254,0.2828252375,0.7637176017746774
0.075,1.659375,1.0,2604.817492671475,0.5699097309908657,1.2713838433022266,0.9836951871560119,0.28274675,0.765149265288624
0.0755,1.65749375,1.0,2602.8914938973676,0.5723221911363017,1.2705521705321932,0.9837934016951606,0.2826677375,0.7665864892229562
