Time [s],Phi [rad],STIM [ ],Fsee [N],Gamma [ ],Lcerel [ ],q [ ],Lmtc [m],fisomrel [ ]
0.0,1.8,1.0,18.833633776696836,0.0009495441559643682,1.379243814940278,0.00523170977588325,0.288653,0.5413715842778835
0.0005,1.79999375,1.0,19.421722006185906,0.006553427272970519,1.379177134909845,0.015753232983289983,0.2886527375,0.5415328455406927
0.001,1.799975,1.0,23.46172085360411,0.012125877037007751,1.378753882955328,0.04067102144472061,0.28865195,0.5425557912827221
0.0015,1.79994375,1.0,34.49899331225107,0.01766706976318792,1.3777616477418355,0.07742151418542847,0.2886506375,0.5449494180337162
0.002,1.7999,1.0,60.12018351937168,0.0231771807800483,1.3759561970792908,0.12272401552266378,0.2886488,0.5492887049670836
0.0025,1.79984375,1.0,107.39248785234035,0.028656384430622236,1.3734525517672127,0.17323986472396807,0.28864643749999996,0.5552716568193792
0.003,1.7997750000000001,1.0,173.8808258391791,0.03410485408124532,1.3707399738265393,0.2261902726787299,0.28864354999999997,0.5617087748950795
0.0035,1.79969375,1.0,252.040179263616,0.03952276212574406,1.368148988980673,0.2794540020219774,0.2886401375,0.5678135265067228
0.004,1.7996,1.0,336.6022804407223,0.044910279989652316,1.3657598212973645,0.33146164916810045,0.2886362,0.5734048250144133
0.0045000000000000005,1.7994937500000001,1.0,424.8502537377756,0.05026757813935029,1.363560450375897,0.3811364798220312,0.2886317375,0.578519766972178
0.005,1.799375,1.0,515.2340244052654,0.055594826045152756,1.3615247786835556,0.4278206802928534,0.28862675,0.5832265127481064
0.0055,1.79924375,1.0,606.7108651565214,0.0608921923883317,1.359629855824585,0.471180644180575,0.2886212375,0.5875840778048094
0.006,1.7991000000000001,1.0,698.4081446159793,0.06615984463752611,1.357859238041132,0.511116516897266,0.2886152,0.5916350948616721
0.006500000000000001,1.79894375,1.0,789.6386559664143,0.07139794950795142,1.3561996199846147,0.5476842804115282,0.2886086375,0.595414001029388
0.007,1.798775,1.0,879.8307942030386,0.0766066728032729,1.3546404127413345,0.5810375350813719,0.28860155,0.5989482705696936
0.0075,1.79859375,1.0,968.4970346353149,0.08178617913381524,1.353173090848621,0.611385197482141,0.2885939375,0.6022601017233153
0.008,1.7984,1.0,1055.2796438162106,0.08693663277448083,1.3517897439948534,0.638961713658387,0.2885858,0.6053698214924601
0.0085,1.79819375,1.0,1139.8632804272797,0.09205819633814336,1.3504839418439873,0.664008540072709,0.2885771375,0.6082940258593765
0.009000000000000001,1.797975,1.0,1222.012239959261,0.09715103178143973,1.349249770467024,0.6867616014435847,0.28856795,0.6110478247089637
0.0095,1.79774375,1.0,1301.5699175540908,0.1022153007197537,1.3480816091097407,0.7074441701267346,0.2885582375,0.6136453871159875
0.01,1.7975,1.0,1378.4060796512154,0.1072511631354102,1.3469746384977372,0.7262634610484207,0.288548,0.6160988528040963
0.0105,1.79724375,1.0,1452.4362820799824,0.11225877812273534,1.3459243883762402,0.7434088590503988,0.2885372375,0.6184193798677429
0.011,1.796975,1.0,1523.621327851445,0.11723830409603801,1.3449266190744518,0.7590517162916572,0.28852595000000003,0.6206174344829976
0.0115,1.79669375,1.0,1591.961661415633,0.12218989960591475,1.3439772922619577,0.7733460190860763,0.2885141375,0.6227028775769506
0.012,1.7964,1.0,1657.4452727796254,0.127113720417325,1.343073097099687,0.7864297398491708,0.28850180000000003,0.6246838330562143
0.0125,1.79609375,1.0,1720.0961084605208,0.13200992207951087,1.3422107756113,0.798425860573504,0.2884889375,0.6265681921413027
0.013000000000000001,1.7957750000000001,1.0,1779.9622755173596,0.13687865952032904,1.34138721038679,0.8094438348591234,0.28847555,0.6283634329857319
0.0135,1.79544375,1.0,1837.1137453408387,0.14172008795997548,1.340599402273649,0.8195809772742199,0.2884616375,0.6300766810294423
0.014,1.7951000000000001,1.0,1891.605441137039,0.14653436021459731,1.339844832493186,0.8289239138415659,0.2884472,0.6317139343994846
0.0145,1.79474375,1.0,1943.4931785580568,0.15132162776145755,1.339121230024189,0.8375496959658615,0.2884322375,0.6332805846520443
0.015,1.794375,1.0,1992.8534030170558,0.15608204207781912,1.338426323845447,0.8455268192029697,0.28841675,0.6347819621443131
0.0155,1.79399375,1.0,2039.7701219705466,0.16081575380636512,1.3377579615559092,0.8529162646684912,0.2884007375,0.636223084839276
0.016,1.7936,1.0,2084.3390434016947,0.16552291410609563,1.3371140425583854,0.8597723657059789,0.2883842,0.6376088083862983
0.0165,1.7931937500000001,1.0,2126.636419218857,0.17020367145039156,1.3364928210193139,0.8661436823595268,0.2883671375,0.638943180492551
0.017,1.792775,1.0,2166.7352369956925,0.1748581729959514,1.3358927103723977,0.8720736235688227,0.28834955,0.6402298696386626
0.0175,1.7923437500000001,1.0,2204.719222804497,0.1794865658994736,1.3353121240513397,0.8776010096653475,0.2883314375,0.6414725110464892
0.018000000000000002,1.7919,1.0,2240.676642953473,0.18408899671207848,1.3347495285100028,0.8827606251388196,0.2883128,0.6426745955431468
0.0185,1.79144375,1.0,2274.6968506501994,0.18866561183804095,1.3342034670786174,0.887583695317606,0.2882936375,0.6438394215326261
0.019,1.790975,1.0,2306.8672137226777,0.19321655714199543,1.3336725799610474,0.8920983014345215,0.28827395,0.6449700554277373
0.0195,1.79049375,1.0,2337.25365338044,0.19774197515680605,1.3331557854299056,0.8963297809505546,0.2882537375,0.6460689497276233
0.02,1.79,1.0,2365.927652170705,0.2022420084153371,1.3326520017578045,0.9003009727625868,0.288233,0.647138538668768
0.0205,1.78949375,1.0,2392.9657935692476,0.20671679945045274,1.3321601472173565,0.9040324972732543,0.2882117375,0.6481812391598981
0.021,1.788975,1.0,2418.4441757475092,0.2111664898089339,1.3316791898291445,0.9075430123233691,0.28818995000000003,0.6491993464103392
0.021500000000000002,1.78844375,1.0,2442.4392429407817,0.21559122140236475,1.33120813422238,0.9108494257184406,0.2881676375,0.650195063217251
0.022,1.7879,1.0,2465.0236321334187,0.21999113554103436,1.3307460570124048,0.9139670905174287,0.2881448,0.6511704265648823
0.0225,1.78734375,1.0,2486.2541963813455,0.22436636976114685,1.3302922161601314,0.9169099899819644,0.28812143749999997,0.6521270789031539
0.023,1.786775,1.0,2506.1904508350926,0.22871706159890612,1.3298458696264723,0.9196908477104756,0.28809755,0.6530666527115951
0.0235,1.78619375,1.0,2524.894350462911,0.23304334859051615,1.3294062753723404,0.9223212585388667,0.28807313749999996,0.6539907708715622
0.024,1.7856,1.0,2542.4300799830835,0.23734536827218097,1.3289726913586484,0.9248118042728526,0.2880482,0.6549010470033402
0.0245,1.78499375,1.0,2558.85081162508,0.241623255176354,1.328544498004467,0.9271721762394681,0.2880227375,0.6557988291804617
0.025,1.784375,1.0,2574.224438338641,0.24587714896035198,1.3281209537613006,0.9294112255852921,0.28799675,0.6566857133379287
0.025500000000000002,1.78374375,1.0,2588.5996024649335,0.2501071836750676,1.327701512512351,0.9315370943298519,0.2879702375,0.6575628784984613
0.026000000000000002,1.7831000000000001,1.0,2602.018683419555,0.25431349135710035,1.3272856986146817,0.9335572646450961,0.2879432,0.6584313503899863
0.0265,1.78244375,1.0,2614.525180222752,0.2584962040430496,1.3268730364253563,0.9354786115061016,0.2879156375,0.6592921494198589
0.027,1.781775,1.0,2626.1636162224995,0.26265545376951493,1.3264630503014383,0.9373074601022059,0.28788755,0.6601462907776805
0.0275,1.7810937500000001,1.0,2636.979448832806,0.2667913725730957,1.326055264599991,0.9390496371211612,0.2878589375,0.6609947845236921
0.028,1.7804,1.0,2647.018945500923,0.2709040924692896,1.3256492040360932,0.9407105166703515,0.2878298,0.6618386349191931
0.0285,1.77969375,1.0,2656.3200940764204,0.27499374022356127,1.325244476692057,0.9422950712135719,0.2878001375,0.6626786683077487
0.029,1.778975,1.0,2664.9347474649353,0.27906045261925666,1.3248405689413287,0.9438078844787733,0.28776995,0.663515959087608
0.029500000000000002,1.7782437500000001,1.0,2672.8925329504536,0.2831043558013529,1.3244371773198877,0.9452532237636647,0.2877392375,0.664351141494591
0.03,1.7775,1.0,2680.223535679054,0.2871255759148272,1.3240339983637142,0.9466350427738384,0.287708,0.6651848466340067
0.0305,1.77674375,1.0,2686.9582582251273,0.2911242391046567,1.3236307286087876,0.9479570086419058,0.2876762375,0.6660177024877081
0.031,1.775975,1.0,2693.127582199513,0.29510047151581864,1.3232270645910877,0.9492225262999436,0.28764395,0.6668503339152704
0.0315,1.7751937500000001,1.0,2698.762731898832,0.2990543992932902,1.3228227028465946,0.950434760493188,0.2876111375,0.6676833626492962
0.032,1.7744,1.0,2703.8952399971868,0.3029861485820485,1.3224173399112877,0.9515966556887437,0.2875778,0.6685174072848505
0.0325,1.77359375,1.0,2708.5422277273638,0.3068958381088694,1.3220108063407747,0.9527109678904799,0.2875439375,0.669352808034962
0.033,1.772775,1.0,2712.7445975718833,0.310783600246582,1.3216027176877456,0.9537802449344274,0.28750955,0.670190344310766
0.0335,1.7719437500000002,1.0,2716.5333194867867,0.3146495611153089,1.3211927822740053,0.954806873073594,0.2874746375,0.6710306014511589
0.034,1.7711000000000001,1.0,2719.926782600027,0.3184938399892617,1.3207808247109214,0.9557930920766802,0.2874392,0.6718739237811898
0.0345,1.7702437500000001,1.0,2722.9435143118467,0.32231655614265203,1.320366669609861,0.9567409955006049,0.2874032375,0.6727206537088206
0.035,1.7693750000000001,1.0,2725.6021665467447,0.3261178288496916,1.319950141582192,0.9576525419416209,0.28736675,0.6735711317013244
0.035500000000000004,1.76849375,1.0,2727.9215026885413,0.32989777738459214,1.319531065239281,0.9585295652961684,0.2873297375,0.6744256962597267
0.036000000000000004,1.7676,1.0,2729.920385196156,0.33365652102156523,1.3191092651924963,0.9593737841289065,0.2872922,0.6752846838912789
0.0365,1.76669375,1.0,2731.617763902918,0.3373941790348226,1.3186845660532045,0.9601868102348236,0.2872541375,0.6761484290799769
0.037,1.765775,1.0,2733.032664996381,0.34111087069857593,1.3182567924327733,0.9609701564730299,0.28721555,0.6770172642551106
0.0375,1.76484375,1.0,2734.1841806814823,0.3448067152870369,1.3178257689425699,0.9617252439416081,0.2871764375,0.6778915197578578
0.038,1.7639,1.0,2735.081623750373,0.34848182483392426,1.317391409506081,0.9624534156157317,0.28713679999999997,0.6787713430221403
0.0385,1.76294375,1.0,2735.7474209741645,0.35213632267607253,1.316953509368389,0.9631559259884114,0.28709663750000003,0.6796571202138473
0.039,1.761975,1.0,2736.199975680993,0.3557703273355797,1.3165119006866148,0.9638339585468667,0.28705595,0.6805491604711303
0.0395,1.7609937500000001,1.0,2736.449722978498,0.35938395092655995,1.316066488249546,0.9644886336435897,0.2870147375,0.6814476243801006
0.04,1.76,1.0,2736.5071232397386,0.3629773055631276,1.315617176845971,0.9651210074923453,0.286973,0.6823526711727649
0.0405,1.7589937500000001,1.0,2736.382658316819,0.3665505033593968,1.3151638712646776,0.9657320765153318,0.2869307375,0.6832644587036407
0.041,1.757975,1.0,2736.086827955044,0.3701036564294819,1.314706476294454,0.9663227813516856,0.28688795,0.6841831434257917
0.0415,1.75694375,1.0,2735.6301464081257,0.3736368768874971,1.314244896724088,0.9668940105569802,0.2868446375,0.6851088803662858
0.042,1.7559,1.0,2735.023139254713,0.3771502768475566,1.313779037342368,0.9674466040204848,0.28680079999999997,0.6860418231010743
0.0425,1.75484375,1.0,2734.276340415703,0.3806439684237747,1.3133088029380815,0.9679813561244051,0.2867564375,0.6869821237292935
0.043000000000000003,1.753775,1.0,2733.4002893720935,0.38411806373026564,1.3128340983000168,0.9684990186670107,0.28671155,0.6879299328469879
0.043500000000000004,1.75269375,1.0,2732.3989075045574,0.3875726681349724,1.3123548883681095,0.9690003073339255,0.28666613750000003,0.6888852796956181
0.044,1.7516,1.0,2731.285489238113,0.39100789745321823,1.3118710529671038,0.9694858951310418,0.2866202,0.6898483619935903
0.0445,1.75049375,1.0,2730.0712048058836,0.3944238631893943,1.3113824911979188,0.9699564209530276,0.2865737375,0.690819337293935
0.045,1.7493750000000001,1.0,2728.7616799655525,0.3978206707273422,1.3108891525306718,0.9704124938213993,0.28652675,0.6917982616031909
0.0455,1.74824375,1.0,2727.3625403551414,0.4011984254509031,1.31039098643548,0.9708546917792661,0.2864792375,0.6927851898584494
0.046,1.7471,1.0,2725.8794105487477,0.4045572327439187,1.3098879423824608,0.9712835637622474,0.2864312,0.6937801759118772
0.0465,1.7459437500000001,1.0,2724.3179131685574,0.4078971979902304,1.3093799698417312,0.9716996313390752,0.28638263750000004,0.6947832725150813
0.047,1.744775,1.0,2722.6836680536658,0.4112184265736795,1.3088670182834088,0.9721033903321139,0.28633355,0.6957945313033049
0.0475,1.74359375,1.0,2720.982291485675,0.4145210238781077,1.308349037177611,0.9724953123271431,0.28628393750000003,0.6968140027794651
0.048,1.7424,1.0,2719.219395470241,0.41780509528735627,1.3078259759944548,0.9728758460809342,0.2862338,0.6978417362980271
0.0485,1.74119375,1.0,2717.400587076382,0.42107074618526674,1.3072977842040576,0.9732454188344309,0.2861831375,0.6988777800487131
0.049,1.739975,1.0,2715.527914991145,0.42431806972738456,1.3067644436534713,0.9736044382847691,0.28613195,0.6999221176976282
0.0495,1.73874375,1.0,2713.609087327516,0.42754718032467126,1.3062258845875472,0.9739532920092391,0.2860802375,0.7009748329355046
0.05,1.7375,1.0,2711.650101615264,0.4307581874300516,1.305682052764457,0.9742923499519739,0.286028,0.7020359777350373
0.0505,1.73624375,1.0,2709.653694253371,0.4339511891750622,1.3051329236240703,0.97462196563609,0.2859752375,0.7031055450275105
0.051000000000000004,1.734975,1.0,2707.6225985187034,0.4371262836912396,1.3045784726062568,0.9749424764328354,0.28592195,0.7041835268649224
0.051500000000000004,1.73369375,1.0,2705.559544383113,0.44028356911012045,1.3040186751508862,0.9752542044393795,0.2858681375,0.7052699144116708
0.052000000000000005,1.7324,1.0,2703.467258343958,0.4434231435632413,1.303453506697828,0.9755574573014513,0.2858138,0.7063646979361968
0.0525,1.73109375,1.0,2701.348463268451,0.44654510518213864,1.3028829426869517,0.9758525289847306,0.28575893750000003,0.7074678668025917
0.053,1.729775,1.0,2699.2058782506288,0.44964955209834917,1.302306958558127,0.9761397004986092,0.28570355000000003,0.7085794094621647
0.0535,1.72844375,1.0,2697.0422184824474,0.4527365824434094,1.3017255297512238,0.9764192405756431,0.2856476375,0.7096993134449725
0.054,1.7271,1.0,2694.860195137961,0.45580629434885594,1.3011386317061115,0.9766914063097633,0.2855912,0.7108275653513103
0.0545,1.7257437500000001,1.0,2692.662515270539,0.45885878594622537,1.3005462398626597,0.9769564437560768,0.2855342375,0.7119641508431652
0.055,1.724375,1.0,2690.451881723958,0.46189415536705425,1.2999483296607381,0.9772145884948735,0.28547675,0.7131090546356287
0.0555,1.72299375,1.0,2688.230993056664,0.4649125007428792,1.2993448765402165,0.9774660661622527,0.2854187375,0.7142622604882736
0.056,1.7216,1.0,2685.9950591791257,0.4679138906647536,1.2987359245190995,0.9777110942199593,0.2853602,0.7154236205411955
0.0565,1.72019375,1.0,2683.753548456016,0.4708984536467417,1.2981213869857122,0.9779498790803646,0.28530113749999997,0.7165932354008777
0.057,1.718775,1.0,2681.5098093562096,0.47386628996564406,1.2975012333073277,0.9781826192577858,0.28524155,0.7177710975147289
0.0575,1.71734375,1.0,2679.2646498836793,0.4768174893344604,1.296875456107387,0.9784095055431319,0.2851814375,0.7189571542124712
0.058,1.7159,1.0,2677.0188766990686,0.4797521414661906,1.2962440480093318,0.9786307210194062,0.2851208,0.7201513521015457
0.0585,1.71444375,1.0,2674.773295116984,0.48267033607383447,1.2956070016366035,0.9788464414324222,0.2850596375,0.7213536370644679
0.059000000000000004,1.7129750000000001,1.0,2672.5287091038426,0.4855721628703919,1.2949643096126435,0.9790568355408492,0.28499795,0.7225639542561753
0.059500000000000004,1.71149375,1.0,2670.285921277771,0.4884577115688627,1.2943159645608935,0.9792620654468942,0.2849357375,0.723782248101374
0.06,1.71,1.0,2668.045732908966,0.49132707188224667,1.2936619591047944,0.9794622869088323,0.284873,0.7250084622918815
0.0605,1.7084937500000001,1.0,2665.8089439217742,0.49418033352354374,1.2930022858677883,0.9796576496365178,0.2848097375,0.7262425397839632
0.061,1.7069750000000001,1.0,2663.5763528977295,0.4970175862057537,1.2923369374733165,0.9798482975709218,0.28474595,0.7274844227956705
0.0615,1.7054437500000001,1.0,2661.3487570796897,0.4998389196418764,1.2916659065448202,0.9800343691486789,0.2846816375,0.7287340528041717
0.062,1.7039,1.0,2659.126952377865,0.5026444235449117,1.290989185705741,0.9802159975525506,0.2846168,0.7299913705430798
0.0625,1.70234375,1.0,2656.9117333758213,0.5054341876278593,1.2903067675795203,0.9803933109486572,0.2845514375,0.731256315999778
0.063,1.7007750000000001,1.0,2654.7038933388544,0.5082083016037192,1.2896186447895999,0.9805664327112716,0.28448555,0.732528828412741
0.0635,1.69919375,1.0,2652.504224223282,0.5109668551854911,1.2889248099594208,0.9807354816359126,0.28441913750000003,0.7338088462688539
0.064,1.6976,1.0,2650.3135166860325,0.513709938086175,1.2882252557124247,0.9809005721414277,0.2843522,0.7350963073007251
0.0645,1.69599375,1.0,2648.130871642813,0.5164376394106782,1.2875199902534682,0.9810618152007681,0.2842847375,0.7363911199127728
0.065,1.694375,1.0,2645.9577574986583,0.5191500419669641,1.2868089999445522,0.981219316228197,0.28421675,0.737693231985988
0.0655,1.69274375,1.0,2643.7963710751,0.5218472300538893,1.2860922643981296,0.9813731766138415,0.2841482375,0.739002602842955
0.066,1.6911,1.0,2641.644054197618,0.524529288952271,1.2853698080517493,0.9815234963882296,0.2840792,0.7403191092235579
0.0665,1.6894486503635782,1.0,2639.732233069679,0.5271963037170504,1.2846417047882428,0.9816703744338692,0.2840098433152703,0.741642537931259
0.067,1.6877972187460006,1.0,2638.3935732637424,0.5298483586597915,1.2839082716055314,0.9818139178850369,0.283940483187332,0.74297223633278
0.0675,1.6861457871284231,1.0,2637.5858261503768,0.5324855375836326,1.2831699321554701,0.9819542353199867,0.28387112305939377,0.7443073645505944
0.068,1.6844943555108456,1.0,2637.26476866412,0.535107924032053,1.2824270931223958,0.9820914308616144,0.28380176293145554,0.7456471207603113
0.0685,1.6828429238932683,1.0,2637.389986427647,0.5377156010579082,1.281680127394448,0.982225603552844,0.28373240280351725,0.746990771144922
0.069,1.6811914922756908,1.0,2637.9257750412594,0.5403086509763693,1.2809293653889282,0.9823568471382457,0.283663042675579,0.7483376647390755
0.0695,1.6795400606581132,1.0,2638.8472485865504,0.5428871533258962,1.2801750383179265,0.9824852474923648,0.2835936825476407,0.7496873338761112
0.07,1.677888629040536,1.0,2640.1036295768554,0.5454511947062931,1.2794176173435845,0.9826108992745172,0.2835243224197025,0.7510388874937315
0.07050000000000001,1.6762371974229584,1.0,2641.669447369664,0.5480008555783656,1.2786573400092602,0.9827338829970854,0.28345496229176426,0.7523918586063889
0.07100000000000001,1.6745857658053809,1.0,2643.5237078443565,0.5505362152645489,1.2778944027606423,0.98285427464796,0.283385602163826,0.7537458575073531
0.07150000000000001,1.6729343341878034,1.0,2645.6454364999227,0.5530573530872779,1.2771290020434192,0.9829721477998361,0.28331624203588773,0.7551004981709777
0.07200000000000001,1.671282902570226,1.0,2648.013667297907,0.5555643483689879,1.2763613343032794,0.9830875737080964,0.2832468819079495,0.756455398284793
0.0725,1.6696314709526485,1.0,2650.607432360041,0.5580572804321138,1.2755915959859112,0.9832006214041513,0.2831775217800112,0.75781017927914
0.073,1.667980039335071,1.0,2653.405752522619,0.5605362285990909,1.2748199835370033,0.9833113577844791,0.283108161652073,0.7591644663543407
0.0735,1.6663286077174937,1.0,2656.3876287453663,0.5630012721923543,1.2740466934022443,0.9834198476955827,0.28303880152413474,0.7605178885054091
0.074,1.6646771760999162,1.0,2659.5411585883758,0.5654524868144911,1.2732718380078913,0.9835261500885082,0.2829694413961965,0.7618702249738163
0.0745,1.6630257444823386,1.0,2662.8431782211755,0.5678899548598018,1.2724956333060056,0.9836303270507215,0.2829000812682582,0.7632210772613487
