Time [s],Phi [rad],STIM [ ],Fsee [N],Gamma [ ],Lcerel [ ],q [ ],Lmtc [m],fisomrel [ ]
0.0,1.8,1.0,17.979399547557563,0.00012032637150426726,1.3793383750092945,0.005003783722092186,0.288653,0.5411428483587624
0.0005,1.79999375,1.0,18.325315013767266,0.005728860744540589,1.3792969960913088,0.013249642747747929,0.2886527375,0.5412429488396354
0.001,1.799975,1.0,21.749023946858763,0.01130593567413562,1.3789249790144884,0.03618580529561328,0.28865195,0.542142411603538
0.0015,1.79994375,1.0,31.37559137415398,0.016851727623833874,1.3780201673283772,0.07139035551133636,0.2886506375,0.544326381036434
0.002,1.7999,1.0,54.23889849140872,0.02236641206538845,1.3763256703258837,0.11565090094955986,0.2886488,0.5484023911153517
0.0025,1.79984375,1.0,98.21885769602599,0.02785016348703337,1.373882313963667,0.1655891817654722,0.28864643749999996,0.554247497784356
0.003,1.7997750000000001,1.0,162.38695808019932,0.03330315540020456,1.3711609809006677,0.21832648047779957,0.28864354999999997,0.5607127750537442
0.0035,1.79969375,1.0,239.29637235706934,0.03872556033994981,1.368535132322787,0.27165303097817656,0.2886401375,0.5669064293489345
0.004,1.7996,1.0,323.18212489859803,0.04411754987546662,1.3661107196791344,0.32392277074615833,0.2886362,0.5725859085970225
0.0045000000000000005,1.7994937500000001,1.0,411.0435329702898,0.0494792946153607,1.363881174908635,0.37399026589590356,0.2886317375,0.5777757989384928
0.005,1.799375,1.0,501.22509475596945,0.05481096419933766,1.3618198810446511,0.4211415627426988,0.28862675,0.5825458344414365
0.0055,1.79924375,1.0,592.6175555583309,0.06011272733952227,1.3599031647422783,0.4650014476695536,0.2886212375,0.5869569898229989
0.006,1.7991000000000001,1.0,684.3466130345023,0.0653847517783372,1.3581131996302676,0.5054406303238114,0.2886152,0.5910552814112632
0.006500000000000001,1.79894375,1.0,775.6985359443975,0.07062720431785055,1.3564362496787434,0.5424962487295402,0.2886086375,0.5948762752390067
0.007,1.798775,1.0,866.084666821703,0.07584025087745785,1.3548613528176965,0.57631054102718,0.28860155,0.5984484064936044
0.0075,1.79859375,1.0,955.0112624837159,0.08102405633461432,1.353379597398131,0.607086321854116,0.2885939375,0.6017948346388227
0.008,1.7984,1.0,1042.0890925287076,0.08617878468215134,1.3519831767755044,0.6350557938814076,0.2885858,0.6049357247035205
0.0085,1.79819375,1.0,1127.0142788621833,0.09130459930106082,1.3506651841045962,0.6604601201291663,0.2885771375,0.6078888031150818
0.009000000000000001,1.797975,1.0,1209.5299135817836,0.0964016619394127,1.3494197741926404,0.6835366614204184,0.28856795,0.6106690733519267
0.0095,1.79774375,1.0,1289.4590460326776,0.1014701338139584,1.348241396618232,0.7045109036144672,0.2885582375,0.6132905920962475
0.01,1.7975,1.0,1366.6987827619855,0.1065101762161683,1.3471247038823586,0.723592343256619,0.288548,0.6157667090388548
0.0105,1.79724375,1.0,1441.1451187285895,0.11152194788835708,1.3460653575131827,0.7409731279427699,0.2885372375,0.6181083173765085
0.011,1.796975,1.0,1512.7421334289572,0.11650560709520201,1.345059212787564,0.756827300440021,0.28852595000000003,0.6203257004796767
0.0115,1.79669375,1.0,1581.478588598723,0.12146131168007,1.344102268200785,0.771311364106675,0.2885141375,0.6224286639638872
0.012,1.7964,1.0,1647.3748253041863,0.12638921926925734,1.3431907432544856,0.7845654052703728,0.28850180000000003,0.6244263831136281
0.0125,1.79609375,1.0,1710.444305552242,0.13128948532570905,1.3423214456292998,0.7967145661440931,0.2884889375,0.6263266194587576
0.013000000000000001,1.7957750000000001,1.0,1770.7143153207235,0.13616226436127027,1.3414914404827452,0.8078702910271234,0.28847555,0.6281364670823333
0.0135,1.79544375,1.0,1828.2413992281784,0.14100771066879922,1.3406978222234078,0.8181316341037532,0.2884616375,0.629862863304296
0.014,1.7951000000000001,1.0,1883.0988917669895,0.1458259780355672,1.3399378178600057,0.827586641238973,0.2884472,0.6315123724125562
0.0145,1.79474375,1.0,1935.3581383991918,0.15061721943126388,1.3392089524735729,0.8363136444154635,0.2884322375,0.6330908372505785
0.015,1.794375,1.0,1985.0794624355487,0.1553815854492557,1.3385091018733148,0.8443823894917517,0.28841675,0.6346032778983475
0.0155,1.79399375,1.0,2032.34156110717,0.16011922668290915,1.3378361418684381,0.851854921401892,0.2884007375,0.6360546595900782
0.016,1.7936,1.0,2077.2291833683926,0.1648302928313276,1.3371880601714878,0.858786528053335,0.2883842,0.6374496558602969
0.0165,1.7931937500000001,1.0,2119.840440536183,0.1695149344703326,1.3365628600524129,0.8652265121713303,0.2883671375,0.6387928610757014
0.017,1.792775,1.0,2160.2582169002008,0.17417329996654043,1.3359588382559144,0.87121897784742,0.28834955,0.6400881983346185
0.0175,1.7923437500000001,1.0,2198.5516122146164,0.1788055354222774,1.3353745451960186,0.8768034284734386,0.2883314375,0.6413390128653178
0.018000000000000002,1.7919,1.0,2234.799184214629,0.18341178693986984,1.3348085312867513,0.8820152370639863,0.2883128,0.6425486204643129
0.0185,1.79144375,1.0,2269.0881564065053,0.18799220062164412,1.3342593469421384,0.88688612859459,0.2882936375,0.6437203092532371
0.019,1.790975,1.0,2301.501165011521,0.19254692113686284,1.3337256663844126,0.8914446324207689,0.28827395,0.6448570777942595
0.0195,1.79049375,1.0,2332.1318417854773,0.19707609467985351,1.3332061234552677,0.8957164098380272,0.2882537375,0.6459619875379876
0.02,1.79,1.0,2361.0522307531664,0.20157986398748612,1.3326996254121537,0.8997246497860265,0.288233,0.6470374976103719
0.0205,1.78949375,1.0,2388.328129236445,0.20605837033005284,1.3322051903946723,0.9034903078893062,0.2882117375,0.6480858146519117
0.021,1.788975,1.0,2414.029814122358,0.21051175497784583,1.3317218365424248,0.9070323297854302,0.28818995000000003,0.649109129977426
0.021500000000000002,1.78844375,1.0,2438.231667054964,0.21494015920115728,1.331248581995013,0.9103678714901867,0.2881676375,0.6501096203006795
0.022,1.7879,1.0,2461.0032566582913,0.21934372261563254,1.3307845268752607,0.9135125089746512,0.2881448,0.6510892754461414
0.0225,1.78734375,1.0,2482.420503029686,0.22372258688476612,1.3303287419400318,0.916480386522523,0.28812143749999997,0.6520501347203951
0.023,1.786775,1.0,2502.5461874847065,0.22807689069008427,1.3298804514634888,0.9192844002419144,0.28809755,0.6529939022393012
0.0235,1.78619375,1.0,2521.4339069755047,0.232406770226791,1.329438990333865,0.9219363191101194,0.28807313749999996,0.6539220396932512
0.024,1.7856,1.0,2539.1393869036024,0.23671236169009027,1.3290036934393936,0.9244468812019057,0.2880482,0.6548360003292013
0.0245,1.78499375,1.0,2555.720302067864,0.2409938012751861,1.3285738956683082,0.9268258981896326,0.2880227375,0.6557372292262491
0.025,1.784375,1.0,2571.2361074210007,0.24525122517728248,1.3281489319088418,0.9290823479842474,0.28799675,0.656627163543005
0.025500000000000002,1.78374375,1.0,2585.7356104289724,0.2494847662660384,1.3277282516205275,0.931224474599053,0.2879702375,0.6575069932708935
0.026000000000000002,1.7831000000000001,1.0,2599.283237585316,0.25369456325202655,1.3273111712852146,0.9332598229072866,0.2879432,0.6583781796935616
0.0265,1.78244375,1.0,2611.923139952192,0.257880748543526,1.3268972084524746,0.9351953538882671,0.2879156375,0.6592417573532505
0.027,1.781775,1.0,2623.694609222416,0.26204345277555036,1.3264859353016885,0.9370374783627861,0.28788755,0.6600986417416509
0.0275,1.7810937500000001,1.0,2634.637829920068,0.2661828065831133,1.326076924012237,0.9387921006919627,0.2878589375,0.6609497437076461
0.028,1.7804,1.0,2644.7938023701518,0.2702989406012283,1.325669746763501,0.9404646654844042,0.2878298,0.6617959695248633
0.0285,1.77969375,1.0,2654.204269726196,0.274391985464909,1.3252639757348612,0.942060199430432,0.2878001375,0.6626382209475499
0.029,1.778975,1.0,2662.9116490557503,0.278462071809169,1.3248591831056982,0.9435833488247427,0.28776995,0.6634773952547783
0.029500000000000002,1.7782437500000001,1.0,2670.9498044311295,0.2825093248950996,1.3244550252427612,0.9450384228375431,0.2877392375,0.6643142110800996
0.03,1.7775,1.0,2678.3667546722872,0.2865338803209172,1.3240510331932107,0.9464294003404943,0.287708,0.6651496424949384
0.0305,1.77674375,1.0,2685.1907469102393,0.29053586353162714,1.3236469239670428,0.9477599922785491,0.2876762375,0.6659842748937221
0.031,1.775975,1.0,2691.4489738558023,0.2945153991540709,1.323242427589323,0.9490336450917727,0.28764395,0.666818663922708
0.0315,1.7751937500000001,1.0,2697.1689558050703,0.2984726118150898,1.3228372740851182,0.9502535615778415,0.2876111375,0.6676533624403389
0.032,1.7744,1.0,2702.378509974507,0.30240762614152555,1.3224311934794943,0.9514227211270251,0.2875778,0.6684889205082554
0.0325,1.77359375,1.0,2707.105721452068,0.3063205667602195,1.3220239157975178,0.9525438980421461,0.2875439375,0.6693258853776569
0.033,1.772775,1.0,2711.378915763613,0.31021155829801317,1.3216151710642547,0.9536196781453022,0.28750955,0.6701648014710145
0.0335,1.7719437500000002,1.0,2715.2239737869368,0.3140807228955229,1.3212047135399796,0.9546524759414471,0.2874746375,0.671006160713328
0.034,1.7711000000000001,1.0,2718.6623093232056,0.3179281792361043,1.320792339842654,0.9556445499137388,0.2874392,0.671850365747051
0.0345,1.7702437500000001,1.0,2721.7295435036385,0.321754062238053,1.3203777186542676,0.9565980010159434,0.2874032375,0.6726980784116294
0.035,1.7693750000000001,1.0,2724.4422550011113,0.32555848955296746,1.3199606933986587,0.9575148090356933,0.28736675,0.6735496003821733
0.035500000000000004,1.76849375,1.0,2726.8171289448474,0.32934157883244625,1.319541107499667,0.9583968274785135,0.2873297375,0.6744052315621374
0.036000000000000004,1.7676,1.0,2728.870945940314,0.3331034477280878,1.3191188043811308,0.9592457930711206,0.2872922,0.6752652700585382
0.0365,1.76669375,1.0,2730.6205716332383,0.33684421389149055,1.3186936274668892,0.9600633344459385,0.2872541375,0.6761300121555984
0.037,1.765775,1.0,2732.082946816717,0.3405639949742531,1.3182654201807813,0.960850980085793,0.28721555,0.6769997522868327
0.0375,1.76484375,1.0,2733.2750780825145,0.3442629086279738,1.3178340259466457,0.9616101655993397,0.2871764375,0.6778747830055707
0.038,1.7639,1.0,2734.2140290148645,0.34794107250425127,1.3173992881883212,0.9623422403903965,0.28713679999999997,0.6787553949539127
0.0385,1.76294375,1.0,2734.916911929311,0.35159860425468387,1.3169610503296472,0.9630484737777706,0.28709663750000003,0.679641876830124
0.039,1.761975,1.0,2735.4008801534633,0.35523562153087007,1.316519155794462,0.9637300606163527,0.28705595,0.6805345153544679
0.0395,1.7609937500000001,1.0,2735.6734467195797,0.3588522308413449,1.3160735358414684,0.9643881323445608,0.2870147375,0.6814334181781634
0.04,1.76,1.0,2735.7574447986904,0.3624485607332716,1.315623982875917,0.965023747197689,0.286973,0.6823389714079808
0.0405,1.7589937500000001,1.0,2735.6630343802617,0.3660247230285705,1.3151704045724864,0.9656379104873463,0.2869307375,0.6832513267908651
0.041,1.757975,1.0,2735.3993132460446,0.3695808281592571,1.3147127184087866,0.9662315717587145,0.28688795,0.6841706150247189
0.0415,1.75694375,1.0,2734.9753937221217,0.37311698655734693,1.3142508418624288,0.9668056279003076,0.2868446375,0.685096965525366
0.042,1.7559,1.0,2734.400399942079,0.37663330865485545,1.3137846924110232,0.967360926604025,0.28680079999999997,0.6860305064047179
0.0425,1.75484375,1.0,2733.683465260736,0.3801299048837982,1.3133141875321812,0.9678982695636246,0.2867564375,0.6869713644484987
0.043000000000000003,1.753775,1.0,2732.833729818403,0.3836068856761907,1.3128392447035129,0.9684184154338471,0.28671155,0.6879196650935446
0.043500000000000004,1.75269375,1.0,2731.8603382574074,0.38706436146404843,1.3123597814026293,0.9689220825703461,0.28666613750000003,0.6888755324046608
0.044,1.7516,1.0,2730.772437587931,0.3905024426793868,1.3118757151071412,0.9694099515687038,0.2866202,0.6898390890510502
0.0445,1.75049375,1.0,2729.579175206573,0.39392123975422144,1.3113869632946593,0.9698826676191095,0.2865737375,0.6908104562823039
0.045,1.7493750000000001,1.0,2728.2830564399214,0.39732084748592716,1.3108935038169864,0.9703408450620428,0.28652675,0.6917896341976959
0.0455,1.74824375,1.0,2726.8976906015614,0.40070139002170035,1.3103952135795902,0.9707850635041035,0.2864792375,0.6927768220244916
0.046,1.7471,1.0,2725.431945055255,0.40406298068575514,1.3098920125419977,0.9712158749611371,0.2864312,0.6937721318962702
0.0465,1.7459437500000001,1.0,2723.890263866785,0.40740572208922227,1.3093838608602404,0.971633805366547,0.28638263750000004,0.6947755951505465
0.047,1.744775,1.0,2722.277089480116,0.4107297168432326,1.3088707186903505,0.9720393546661299,0.28633355,0.6957872421419208
0.0475,1.74359375,1.0,2720.5968621222405,0.414035067558917,1.3083525461883594,0.9724329983436097,0.28628393750000003,0.6968071022294506
0.048,1.7424,1.0,2718.85401924126,0.4173218768474062,1.3078293035102995,0.972815188842822,0.2862338,0.6978352037639156
0.0485,1.74119375,1.0,2717.05299498219,0.420590247319831,1.307300950812202,0.9731863568944465,0.2861831375,0.6988715740749892
0.049,1.739975,1.0,2715.198219695365,0.4238402815873223,1.3067674482500988,0.9735469127545167,0.28613195,0.6999162394583002
0.0495,1.73874375,1.0,2713.2941194820546,0.4270720822610108,1.3062287559800223,0.9738972473613304,0.2860802375,0.7009692251623978
0.05,1.7375,1.0,2711.345115774479,0.43028575195202734,1.3056848341580036,0.974237733416827,0.286028,0.7020305553756181
0.0505,1.73624375,1.0,2709.355624950634,0.4334813932715027,1.305135642940075,0.9745687263980026,0.2859752375,0.7031002532128416
0.051000000000000004,1.734975,1.0,2707.33005798517,0.4366591088305678,1.3045811424822678,0.9748905655034759,0.28592195,0.7041783407021572
0.051500000000000004,1.73369375,1.0,2705.272820134872,0.4398190012403534,1.3040212929406143,0.9752035745398988,0.2858681375,0.7052648387714195
0.052000000000000005,1.7324,1.0,2703.1847842924853,0.442961160812877,1.3034560866801181,0.9755080634900388,0.2858138,0.706359704900474
0.0525,1.73109375,1.0,2701.0679742104303,0.4460856880608131,1.3028855055433406,0.9758043289692908,0.28575893750000003,0.7074629162364636
0.053,1.729775,1.0,2698.9308020933463,0.44919270293536623,1.3023094729524443,0.976092652855866,0.28570355000000003,0.708574561744947
0.0535,1.72844375,1.0,2696.775062331213,0.4522822996025301,1.301727972728566,0.9763733057456419,0.2856476375,0.7096946124780286
0.054,1.7271,1.0,2694.6025467089657,0.45535457222829867,1.3011409886928433,0.9766465465128397,0.2855912,0.7108230386769668
0.0545,1.7257437500000001,1.0,2692.4150443457143,0.4584096149786657,1.3005485046664127,0.9769126229143148,0.2855342375,0.7119598097665284
0.055,1.724375,1.0,2690.2143416396752,0.46144752201962524,1.2999505044704114,0.9771717721577909,0.28547675,0.7131048943493168
0.0555,1.72299375,1.0,2688.0022222192206,0.46446838751717096,1.2993469719259765,0.9774242214364603,0.2854187375,0.7142582602000914
0.056,1.7216,1.0,2685.7804668992535,0.4674723056372968,1.2987378908542448,0.9776701884322113,0.2853602,0.7154198742600679
0.0565,1.72019375,1.0,2683.5508536439015,0.47045937054599657,1.2981232450763536,0.9779098817895604,0.28530113749999997,0.7165897026312004
0.057,1.718775,1.0,2681.3151575346246,0.4734296764092642,1.2975030184134395,0.9781435015622233,0.28524155,0.7177677105704485
0.0575,1.71734375,1.0,2679.0751507441264,0.4763833173930935,1.2968771946866398,0.9783712396341134,0.2851814375,0.7189538624840275
0.058,1.7159,1.0,2676.8326025163947,0.47932038766347834,1.2962457577170914,0.9785932801164187,0.2851208,0.7201481219216403
0.0585,1.71444375,1.0,2674.589279152352,0.4822409813864126,1.2956086913259313,0.9788097997223069,0.2850596375,0.7213504515706961
0.059000000000000004,1.7129750000000001,1.0,2672.3469440011427,0.48514519272789014,1.2949659793342965,0.9790209681206784,0.28499795,0.7225608132505082
0.059500000000000004,1.71149375,1.0,2670.1073574575526,0.4880331158539048,1.294317605563324,0.9792269482702963,0.2849357375,0.7237791679064782
0.06,1.71,1.0,2667.871161173938,0.4909048267055233,1.293663564092743,0.9794278958020941,0.284873,0.7250054563914141
0.0605,1.7084937500000001,1.0,2665.6382277601374,0.4937604213259839,1.2930038560659276,0.9796239623195864,0.2848097375,0.7262396056457181
0.061,1.7069750000000001,1.0,2663.4102128491377,0.4966000145284287,1.2923384662213393,0.9798152941826156,0.28474595,0.7274815725999837
0.0615,1.7054437500000001,1.0,2661.187646992546,0.4994236918430919,1.2916673896289521,0.9800020303625375,0.2846816375,0.7287312940913043
0.062,1.7039,1.0,2658.9710598587008,0.5022315388002072,1.29099062135874,0.9801843045588812,0.2846168,0.7299887062539998
0.0625,1.70234375,1.0,2656.7609802366414,0.5050236409300086,1.2903081564806773,0.9803622454372282,0.2845514375,0.7312537445178271
0.063,1.7007750000000001,1.0,2654.557936041984,0.5078000837627302,1.2896199900647374,0.9805359768546275,0.28448555,0.7325263436061908
0.0635,1.69919375,1.0,2652.3624543228757,0.5105609528286058,1.2889261171808943,0.9807056180732878,0.28441913750000003,0.7338064375343498
0.064,1.6976,1.0,2650.1750612658134,0.5133063336578695,1.2882265328991223,0.9808712839632393,0.2843522,0.735093959607625
0.0645,1.69599375,1.0,2647.9962822034227,0.5160363117807553,1.287521232289395,0.9810330851946081,0.2842847375,0.7363888424196039
0.065,1.694375,1.0,2645.8266416214174,0.5187509727274968,1.2868102104216865,0.9811911284201125,0.28421675,0.7376910178503441
0.0655,1.69274375,1.0,2643.6666631668113,0.5214504020283284,1.2860934623659708,0.981345516448336,0.2841482375,0.7390004170645754
0.066,1.6911,1.0,2641.516869656405,0.5241346852134838,1.285370983192222,0.9814963484083177,0.2840792,0.7403169705098998
0.0665,1.6894437500000001,1.0,2639.377783086368,0.5268039078131971,1.2846427679704135,0.9816437199059411,0.2840096375,0.7416406079149915
0.067,1.687775,1.0,2637.2499246410603,0.5294581553577021,1.2839088117705197,0.9817877231725973,0.28393955,0.7429712582877921
0.0675,1.68609375,1.0,2635.1338147040474,0.5320975133772329,1.2831691096625146,0.9819284472065448,0.2838689375,0.7443088499137078
0.068,1.6844000000000001,1.0,2633.029972868519,0.5347220674020233,1.282423656716372,0.9820659779073804,0.2837978,0.7456533103538037
0.0685,1.68269375,1.0,2630.9389179484074,0.5373319029623075,1.2816724480020656,0.982200398204,0.2837261375,0.7470045664429963
0.069,1.680975,1.0,2628.857341157055,0.5399270682883096,1.2809155140336141,0.9823317874582433,0.28365395,0.748362480788362
0.0695,1.67924375,1.0,2626.785873299581,0.5425076672733266,1.2801528488710607,0.9824602241834601,0.28358123749999997,0.7497269810887393
0.07,1.6775,1.0,2624.7276260199915,0.5450738139012369,1.2793844235699607,0.982585783775955,0.283508,0.7510980352885228
0.07050000000000001,1.67574375,1.0,2622.682418245934,0.5476255844782588,1.2786102396741057,0.9827085381407291,0.2834342375,0.752475555958984
0.07100000000000001,1.673975,1.0,2620.650069251159,0.5501630553106102,1.2778302987272863,0.9828285567859738,0.28335995,0.7538594550673051
0.07150000000000001,1.67219375,1.0,2618.6303986514313,0.5526863027045089,1.2770446022732935,0.9829459069175415,0.2832851375,0.7552496439771448
0.07200000000000001,1.6704,1.0,2616.623226400991,0.5551954029661732,1.2762531518559186,0.9830606535290803,0.2832098,0.7566460334492053
0.0725,1.66859375,1.0,2614.628372788509,0.5576904324018209,1.2754559490189523,0.9831728594880518,0.2831339375,0.7580485336417996
0.073,1.6667750000000001,1.0,2612.645658433647,0.5601714673176702,1.2746529953061856,0.9832825856178502,0.28305755,0.7594570541114172
0.0735,1.66494375,1.0,2610.6749042830943,0.5626385840199389,1.2738442922614097,0.9833898907762202,0.2829806375,0.7608715038132896
0.074,1.6631,1.0,2608.7159316072934,0.5650918588148451,1.2730298414284156,0.9834948319301643,0.2829032,0.7622917911019587
0.0745,1.6612437500000001,1.0,2606.768561996742,0.5675313680086068,1.2722096443509943,0.9835974642275207,0.2828252375,0.7637178237318407
0.075,1.659375,1.0,2604.8326173586033,0.569957187907442,1.2713837025729364,0.9836978410653738,0.28274675,0.7651495088577933
0.0755,1.65749375,1.0,2602.9079199131434,0.5723693948175687,1.2705520176380334,0.9837960141554635,0.2826677375,0.7665867530356801
