Time [s],Phi [rad],STIM [ ],Fsee [N],Gamma [ ],Lcerel [ ],q [ ],Lmtc [m],fisomrel [ ]
0.0,1.8,1.0,18.04250888444401,0.0002847368101942556,1.3793313132517844,0.0050210434780747935,0.288653,0.541159932355474
0.0005,1.79999375,1.0,18.440898502986617,0.005892348970706389,1.3792841941963134,0.013720824177179295,0.2886527375,0.541273915921088
0.001,1.799975,1.0,21.986644361493656,0.011468506860636045,1.3789008483187255,0.03705460698771941,0.28865195,0.5422007243091524
0.0015,1.79994375,1.0,31.88022146119874,0.017013386914565755,1.3779775556391518,0.07257172564033018,0.2886506375,0.544429105334987
0.002,1.7999,1.0,55.272967542156806,0.022527164575208078,1.3762593073019949,0.11704494051281723,0.2886488,0.5485616507290274
0.0025,1.79984375,1.0,99.91255641850894,0.028010014302472932,1.3738015038284748,0.1671025538903917,0.28864643749999996,0.5544401649731212
0.003,1.7997750000000001,1.0,164.562165950933,0.033462109578926216,1.3710801894407862,0.2198856657699544,0.28864354999999997,0.5609039955503514
0.0035,1.79969375,1.0,241.73838897514,0.03888362291133768,1.3684603559905333,0.27320235494122896,0.2886401375,0.5670821621917395
0.004,1.7996,1.0,325.7710350180305,0.04427472584076858,1.3660424679690704,0.3254219028639153,0.2886362,0.5727452539640054
0.0045000000000000005,1.7994937500000001,1.0,413.7183097179148,0.049635588947999285,1.3638186250682394,0.37541261452416835,0.2886317375,0.5779209440480098
0.005,1.799375,1.0,503.94943704367245,0.054966381845301115,1.3617621720234716,0.42247179330071577,0.28862675,0.5826789888165184
0.0055,1.79924375,1.0,595.3626808074935,0.06026727321404744,1.3598496762664984,0.46623271338675015,0.2886212375,0.5870797528408682
0.006,1.7991000000000001,1.0,687.09179550866,0.06553843077342733,1.3580634161038159,0.5065719561826267,0.2886152,0.5911689733675562
0.006500000000000001,1.79894375,1.0,778.4234230579948,0.0707800212823873,1.3563898293181833,0.5435305584606539,0.2886086375,0.5949817906841715
0.007,1.798775,1.0,868.7728867738282,0.07599221068019786,1.3548180081781525,0.5772530748692067,0.28860155,0.598546495766864
0.0075,1.79859375,1.0,957.647954603094,0.08117516368927484,1.3533391078340222,0.6079435745751386,0.2885939375,0.6018860805964835
0.008,1.7984,1.0,1044.674904481046,0.0863290445836658,1.3519451610984,0.6358346558427924,0.2885858,0.6050210573323385
0.0085,1.79819375,1.0,1129.533278885982,0.09145401625995633,1.3506295711201777,0.6611676911608353,0.2885771375,0.6079684434186233
0.009000000000000001,1.797975,1.0,1211.9776476945485,0.09655024066785631,1.3493863682480025,0.6841797027065004,0.28856795,0.6107435130180842
0.0095,1.79774375,1.0,1291.847645063135,0.1016178795230721,1.34820982288971,0.7050956574988908,0.2885582375,0.6133607118721839
0.01,1.7975,1.0,1369.0108959981526,0.10665709308716143,1.3470950161852029,0.7241247782741047,0.288548,0.6158324290159239
0.0105,1.79724375,1.0,1443.37188837376,0.11166804035139864,1.3460375129025828,0.7414586217660689,0.2885372375,0.618169769337356
0.011,1.796975,1.0,1514.8853013290995,0.11665087982179216,1.345033054616051,0.7572706468291441,0.28852595000000003,0.6203832628262667
0.0115,1.79669375,1.0,1583.5563147813036,0.12160577016338547,1.344077465358024,0.77171678217665,0.2885141375,0.6224830925790744
0.012,1.7964,1.0,1649.3781871248154,0.12653286765015606,1.3431673107567905,0.7849368113394825,0.28850180000000003,0.6244776684564808
0.0125,1.79609375,1.0,1712.3595875382123,0.13143232757723064,1.3422994597363918,0.7970554726245439,0.2884889375,0.6263746169138211
0.013000000000000001,1.7957750000000001,1.0,1772.545003210872,0.13630430522059214,1.341470785956873,0.8081837445142679,0.28847555,0.6281814487818731
0.0135,1.79544375,1.0,1829.993945877106,0.14114895477897382,1.340678362522795,0.8184203328555554,0.2884616375,0.6299051444795507
0.014,1.7951000000000001,1.0,1884.7924756460927,0.14596643052851524,1.3399192885216695,0.8278529357688975,0.2884472,0.6315525423817665
0.0145,1.79474375,1.0,1936.9777480181322,0.1507568838204725,1.3391914730855912,0.8365597581314759,0.2884322375,0.6331286498278912
0.015,1.7943792348248,1.0,1986.786347953587,0.15552046600610175,1.3384928253466541,0.8446103119836704,0.2884169278626416,0.6346384157807382
0.0155,1.7940145241697745,1.0,2034.6388766399064,0.16025732790622926,1.3378213309033602,0.8520664595419986,0.28840161001513054,0.6360865701105944
0.016,1.7936498135147487,1.0,2080.6038171713258,0.1649676203972427,1.3371754090081946,0.8589834294224139,0.28838629216761946,0.6374768608423362
0.0165,1.7932851028597232,1.0,2124.730830093504,0.1696514923813194,1.3365537047559537,0.8654105273216813,0.2883709743201084,0.6388125121653137
0.017,1.7929203922046975,1.0,2167.070875521641,0.1743090911507175,1.335954947323235,0.871391793146342,0.2883556564725973,0.6400965349778137
0.0175,1.792555681549672,1.0,2207.6834407504443,0.17894056399769503,1.3353778658866358,0.8769666006356277,0.28834033862508623,0.6413319103103501
0.018000000000000002,1.7921909708946462,1.0,2246.627520525711,0.18354605695352866,1.3348212736924205,0.8821702277184409,0.28832502077757516,0.642521411616662
0.0185,1.7918262602396204,1.0,2283.9768583645478,0.18812571765979202,1.3342839072659987,0.887034294633811,0.2883097029300641,0.6436679507110243
0.019,1.791461549584595,1.0,2319.7953639604,0.19267969165979948,1.3337646665998388,0.8915872456609913,0.288294385082553,0.644774066739472
0.0195,1.7910968389295692,1.0,2354.1320103568974,0.19720812142317282,1.3332626540102146,0.8958547200639676,0.28827906723504193,0.645841847710676
0.02,1.7907321282745436,1.0,2387.040500506952,0.20171114941953394,1.3327769718133993,0.8998598232273397,0.28826374938753085,0.6468733642560717
0.0205,1.790367417619518,1.0,2418.578933315705,0.2061889181185047,1.3323067223256662,0.9036234112054041,0.2882484315400198,0.6478706705904739
0.021,1.7900027069644924,1.0,2448.809487549822,0.21064156998970698,1.3318510078632886,0.9071643403658762,0.2882331136925087,0.6488358054212997
0.021500000000000002,1.7896379963094666,1.0,2477.782411972447,0.21506924453018844,1.3314090806339198,0.9104997164539465,0.2882177958449976,0.6497704759992986
0.022,1.7892732856544409,1.0,2505.5688526895715,0.21947208595480422,1.3309800244719185,0.9136450224203015,0.2882024779974865,0.6506767327824241
0.0225,1.7889085749994154,1.0,2532.212524181015,0.22385023201781518,1.33056321326432,0.9166143775080964,0.2881871601499755,0.6515560013914787
0.023,1.7885438643443896,1.0,2557.7563160630984,0.22820381979062726,1.330158051479943,0.9194206322145199,0.28817184230246434,0.6524096334278296
0.0235,1.788179153689364,1.0,2582.2453221284477,0.23253298634464636,1.3297639435876067,0.9220754948158346,0.2881565244549533,0.6532389716503499
0.024,1.7878144430343383,1.0,2605.726690459685,0.2368378687512785,1.3293802940561306,0.9245896487033869,0.2881412066074422,0.6540453504065593
0.0245,1.7874497323793128,1.0,2628.2494814083393,0.24111860408192953,1.3290065073543331,0.9269728562517527,0.2881258887599311,0.6548300960411453
0.025,1.787085021724287,1.0,2649.8519408052152,0.245375325801735,1.3286421041206369,0.9292340690709852,0.28811057091242004,0.6555942837983433
0.025500000000000002,1.7867203110692613,1.0,2670.5900175750276,0.24960817364635723,1.328286455684812,0.9313814677789111,0.28809525306490896,0.656339295324949
0.026000000000000002,1.7863556004142358,1.0,2690.4990270165263,0.2538172804151468,1.327939136927913,0.9334225889006059,0.2880799352173979,0.6570660793079577
0.0265,1.78599088975921,1.0,2709.6109197244223,0.25800277748909806,1.3275997640650126,0.9353643625569918,0.2880646173698868,0.6577754929354213
0.027,1.7856261791041845,1.0,2727.958674592249,0.2621647962492054,1.3272679533111833,0.9372131639499679,0.28804929952237573,0.6584683888249654
0.0275,1.7852614684491588,1.0,2745.5762328328574,0.26630346807646327,1.3269433208814978,0.9389748652091793,0.28803398167486466,0.6591456152135777
0.028,1.784896757794133,1.0,2762.4984352648344,0.27041892435186593,1.3266254829910284,0.9406548817646544,0.2880186638273536,0.6598080161380019
0.0285,1.7845320471391075,1.0,2778.7609628638616,0.2745112964564078,1.326314055854848,0.9422582138827803,0.2880033459798425,0.6604564316057369
0.029,1.7841673364840818,1.0,2794.3870612677997,0.2785807099927706,1.3260087744431825,0.9437894983352145,0.28798802813233143,0.6610914508483869
0.029500000000000002,1.7838026258290562,1.0,2809.421363109668,0.28262730191333857,1.3257091873884668,0.9452530048926648,0.28797271028482035,0.6617140473556908
0.03,1.7834379151740305,1.0,2823.88659438016,0.2866511980535873,1.3254150459480039,0.9466527127077221,0.2879573924373093,0.6623247699957224
0.0305,1.783073204519005,1.0,2837.80483915936,0.2906525237021307,1.3251261114598725,0.9479923134612506,0.2879420745897982,0.66292414428247
0.031,1.7827084938639792,1.0,2851.1986304382667,0.2946314041475825,1.3248421452621504,0.9492752347177329,0.2879267567422871,0.6635126934358546
0.0315,1.7823437832089535,1.0,2864.090923197402,0.29858796467855664,1.324562908692916,0.9505046621278698,0.28791143889477605,0.664090938459164
0.032,1.781979072553928,1.0,2876.505068748636,0.302522330583667,1.3242881630902479,0.951683559505711,0.287896121047265,0.6646593982128597
0.0325,1.7816143618989022,1.0,2888.4647903401205,0.30643462715152747,1.3240176697922237,0.9528146870067292,0.2878808031997539,0.6652185894847498
0.033,1.7812496512438767,1.0,2899.992844938323,0.3103249786388067,1.323751201733843,0.9539006186617709,0.2878654853522428,0.6657690031119019
0.0335,1.780884940588851,1.0,2911.104117066671,0.314193504024234,1.3234886039284808,0.9549437629513399,0.28785016750473175,0.6663109793635283
0.034,1.7805202299338254,1.0,2921.829993344736,0.31804033622937083,1.3232295784935526,0.9559463569429192,0.28783484965722067,0.6668451517438786
0.0345,1.7801555192787997,1.0,2932.184416241922,0.32186559397207093,1.3229739835013663,0.9569105051123098,0.2878195318097096,0.6673718302973826
0.035,1.779790808623774,1.0,2942.1815231043315,0.32566939597018807,1.32272167702423,0.9578381763062677,0.2878042139621985,0.6678913239115707
0.035500000000000004,1.7794260979687484,1.0,2951.835635583731,0.3294518609415759,1.3224725171344514,0.9587312140622674,0.28778889611468744,0.668403940347484
0.036000000000000004,1.7790613873137227,1.0,2961.1612495124477,0.3332131076040883,1.3222263619043382,0.9595913460296135,0.28777357826717637,0.6689099862687962
0.0365,1.7786966766586971,1.0,2970.173025225281,0.33695325467557885,1.3219830694061987,0.9604201925794558,0.2877582604196653,0.6694097672696526
0.037,1.7783319660036714,1.0,2978.8857783278254,0.34067242087390154,1.3217424977123406,0.9612192746818801,0.2877429425721542,0.6699035879012261
0.0375,1.7779672553486459,1.0,2987.314470911574,0.34437072491690995,1.321504504895072,0.9619900211199627,0.28772762472464314,0.6703917516969855
0.038,1.7776025446936201,1.0,2995.4739711081293,0.3480482852095482,1.321268951040626,0.9627337752301349,0.28771230687713206,0.6708745570703314
0.0385,1.7772378340385944,1.0,3003.3694980508867,0.3517052083230129,1.3210357809646067,0.963451806367976,0.28769698902962093,0.6713521279988681
0.039,1.7768731233835688,1.0,3011.0250151419373,0.3553416275896507,1.3208047778866736,0.9641453000592215,0.28768167118210985,0.6718249186386545
0.0395,1.776508412728543,1.0,3018.4488008868375,0.35895765460792434,1.3205758619910826,0.9648153814155465,0.2876663533345988,0.6722931017495994
0.04,1.7761437020735176,1.0,3025.6492089698077,0.3625534009762963,1.3203489534620896,0.9654631112246607,0.2876510354870877,0.6727568495399998
0.0405,1.7757789914184918,1.0,3032.634664630697,0.3661289782932292,1.3201239724839509,0.9660894903110873,0.2876357176395766,0.6732163336769601
0.041,1.7754142807634663,1.0,3039.413661183301,0.36968449815718557,1.3199008392409226,0.9666954635571264,0.28762039979206555,0.6736717252964075
0.0415,1.7750495701084406,1.0,3045.994756674989,0.37322007216662806,1.3196794739172604,0.967281923613762,0.2876050819445545,0.6741231950127029
0.042,1.7746848594534148,1.0,3052.386570687301,0.3767358119200192,1.3194597966972206,0.9678497143283941,0.2875897640970434,0.6745709129278397
0.0425,1.7743201487983893,1.0,3058.597781278207,0.3802318290158216,1.3192417277650592,0.9683996339137058,0.2875744462495323,0.6750150486402418
0.043000000000000003,1.7739554381433635,1.0,3064.6371220654005,0.38370823505249774,1.3190251873050323,0.968932437879657,0.28755912840202125,0.6754557712531539
0.043500000000000004,1.773590727488338,1.0,3070.513379450628,0.38716514162851035,1.3188100955013957,0.9694488417485424,0.28754381055451017,0.6758932493826242
0.044,1.7732260168333123,1.0,3076.2316833643704,0.3906026514319583,1.318596404274681,0.9699495246970921,0.2875284927069991,0.676327586681263
0.0445,1.7728613061782867,1.0,3081.7999432701095,0.3940208769161239,1.3183840420612962,0.970435130371623,0.287513174859488,0.6767589341859399
0.045,1.772496595523261,1.0,3087.229400909436,0.3974199389304587,1.3181729091799748,0.9709062684801834,0.28749785701197694,0.677187499566172
0.0455,1.7721318848682353,1.0,3092.524584391459,0.4007999413298004,1.3179629637214025,0.9713635196490246,0.28748253916446587,0.6776133727726469
0.046,1.7717671742132097,1.0,3097.6900482418623,0.40416098796898675,1.3177541637762655,0.9718074353531563,0.2874672213169548,0.678036643503974
0.0465,1.771402463558184,1.0,3102.730372319238,0.4075031827028555,1.31754646743525,0.9722385396587828,0.2874519034694437,0.6784574012098015
0.047,1.7710377529031585,1.0,3107.6501607698415,0.4108266293862444,1.3173398327890415,0.9726573308455835,0.28743658562193264,0.6788757350938239
0.0475,1.7706730422481327,1.0,3112.4540410219165,0.4141314318739912,1.3171342179283263,0.9730642829181924,0.28742126777442156,0.6792917341166737
0.048,1.770308331593107,1.0,3117.1466628185053,0.41741769402093354,1.3169295809437904,0.9734598470154099,0.2874059499269105,0.6797054869987035
0.0485,1.7699436209380814,1.0,3121.7326972891333,0.42068551968190926,1.31672587992612,0.973844452724963,0.2873906320793994,0.6801170822226565
0.049,1.7695789102830557,1.0,3126.2168360612054,0.423935012711756,1.3165230729660005,0.9742185093109537,0.28737531423188833,0.6805266080362243
0.0495,1.7692141996280302,1.0,3130.6037904091527,0.4271662769653115,1.3163211181541183,0.974582406860551,0.28735999638437726,0.6809341524544907
0.05,1.7688494889730044,1.0,3134.8982904434993,0.43037941629741355,1.3161199735811593,0.9749365173559233,0.2873446785368662,0.6813398032622677
0.0505,1.768484778317979,1.0,3139.105084338493,0.4335745345628999,1.3159195973378097,0.9752811956769191,0.2873293606893551,0.6817436480163144
0.051000000000000004,1.7681200676629532,1.0,3143.2222749325724,0.43675170362169996,1.3157200039496408,0.9756167806313764,0.28731404284184403,0.6821456604146645
0.051500000000000004,1.7677553570079274,1.0,3147.260454373169,0.43991106246616124,1.3155211022176045,0.9759435963856569,0.28729872499433295,0.682546026962334
0.052000000000000005,1.7673906463529019,1.0,3151.223416395953,0.4430527143840542,1.315322858717593,0.9762619523322537,0.2872834071468219,0.6829448175069035
0.0525,1.7670259356978761,1.0,3155.1133477582216,0.4461767544302656,1.3151252537206954,0.9765721441463786,0.2872680892993108,0.68334207419473
0.053,1.7666612250428506,1.0,3158.9324437417167,0.4492832776596823,1.3149282674980027,0.9768744545444981,0.2872527714517997,0.6837378390647526
0.0535,1.7662965143878249,1.0,3162.682907877363,0.45237237912719097,1.314731880320605,0.9771691539629953,0.28723745360428865,0.6841321540492871
0.054,1.7659318037327993,1.0,3166.3669516792734,0.45544415388767856,1.3145360724595918,0.9774565011957134,0.2872221357567776,0.6845250609747908
0.0545,1.7655670930777736,1.0,3169.9867943867084,0.4584986969960317,1.314340824186054,0.9777367439931862,0.2872068179092665,0.6849166015626031
0.055,1.7652023824227479,1.0,3173.5446627152382,0.46153610350713725,1.314146115771081,0.978010119626172,0.2871915000617554,0.6853068174296639
0.0555,1.7648376717677223,1.0,3177.042790616069,0.46455646847588195,1.3139519274857634,0.9782768554158923,0.28717618221424435,0.6856957500892027
0.056,1.7644729611126966,1.0,3180.4834190444235,0.4675598869571526,1.3137582396011913,0.9785371692332022,0.28716086436673327,0.6860834409514076
0.0565,1.764108250457671,1.0,3183.8687957361676,0.470546454005836,1.313565032388455,0.9787912699687584,0.2871455465192222,0.6864699313240665
0.057,1.7637435398026453,1.0,3187.201174993379,0.47351626467681895,1.313372286118644,0.9790393579760875,0.2871302286717111,0.6868552624131845
0.0575,1.7633788291476198,1.0,3190.4828174781956,0.47646941402498816,1.3131799810628493,0.9792816254893275,0.28711491082420004,0.6872394753235758
0.058,1.763014118492594,1.0,3193.7159900158226,0.4794059971052305,1.3129880974921604,0.9795182570172823,0.28709959297668897,0.6876226110594321
0.0585,1.7626494078375683,1.0,3196.90296540557,0.48232610897243267,1.3127966156776676,0.9797494297153096,0.2870842751291779,0.6880047105248646
0.059000000000000004,1.7622846971825428,1.0,3200.0460222409056,0.48522984468148156,1.3126055158904613,0.9799753137364573,0.2870689572816668,0.6883858145244215
0.059500000000000004,1.761919986527517,1.0,3203.144529748553,0.4881172681157365,1.3124148028604803,0.9801960713567505,0.28705363943415574,0.6887659150307629
0.06,1.7615552758724915,1.0,3206.201811809455,0.49098849527030525,1.3122244481502174,0.980411860970039,0.28703832158664466,0.6891450700806512
0.0605,1.7611905652174658,1.0,3209.22086108792,0.4938436352602516,1.3120344261604533,0.9806228344329726,0.2870230037391336,0.689523331921928
0.061,1.7608258545624402,1.0,3212.2026511718605,0.49668277381979603,1.3118447282642127,0.9808291368498055,0.2870076858916225,0.6899007189216178
0.0615,1.7604611439074145,1.0,3215.1481582724946,0.49950599668315915,1.3116553458345206,0.9810309078333923,0.28699236804411143,0.6902772494029508
0.062,1.7600964332523887,1.0,3218.058361162861,0.5023133895845614,1.311466270244402,0.9812282817544938,0.28697705019660036,0.6906529416455394
0.0625,1.7597317225973632,1.0,3220.934241118625,0.5051050382582234,1.3112774928668816,0.9814213879779543,0.2869617323490893,0.6910278138855501
0.063,1.7593670119423375,1.0,3223.7767818599614,0.5078810284383656,1.3110890050749844,0.9816103510865314,0.28694641450157815,0.6914018843158685
0.0635,1.759002301287312,1.0,3226.586969495736,0.5106414458592086,1.3109007982417353,0.981795291093115,0.28693109665406713,0.6917751710862621
0.064,1.7586375906322862,1.0,3229.365792468115,0.5133863762549729,1.310712863740159,0.9819763236420154,0.286915778806556,0.6921476923035375
0.0645,1.7582728799772604,1.0,3232.1142415006902,0.516115905359879,1.3105251929432808,0.9821535601999619,0.2869004609590449,0.6925194660316907
0.065,1.757908169322235,1.0,3234.83330954646,0.5188301189081473,1.3103377772241256,0.9823271082374081,0.28688514311153385,0.6928905102920568
0.0655,1.7575434586672092,1.0,3237.523991738612,0.5215291026339985,1.3101506079557177,0.9824970714007005,0.28686982526402277,0.6932608430634526
0.066,1.7571787480121837,1.0,3240.1872853422706,0.5242129422716533,1.3099636765110825,0.9826635496756376,0.2868545074165117,0.6936304822823119
0.0665,1.756814037357158,1.0,3242.8241897083603,0.5268817235553319,1.3097769742632448,0.9828266395429041,0.2868391895690006,0.693999445842822
0.067,1.7564493267021324,1.0,3245.435706229051,0.529535532219255,1.3095904925852293,0.9829864341258393,0.28682387172148954,0.6943677515970507
0.0675,1.7560846160471066,1.0,3248.022838294313,0.5321744539976431,1.3094042228500613,0.9831430233309725,0.28680855387397847,0.6947354173550689
0.068,1.755719905392081,1.0,3250.5865912511263,0.5347985746247166,1.3092181564307652,0.9832964939817223,0.2867932360264674,0.6951024608850728
0.0685,1.7553551947370554,1.0,3253.1279723633374,0.5374079798346962,1.3090322847003664,0.9834469299456418,0.2867779181789563,0.6954688999134939
0.069,1.7549904840820296,1.0,3255.6464841641823,0.5400027158593766,1.3088466115710777,0.9835944104436957,0.28676260033144524,0.6958347274268617
0.0695,1.754625773427004,1.0,3258.1432058107102,0.5425828809363803,1.3086611278343394,0.9837390145794107,0.28674728248393416,0.6961999622577602
