Time [s],Phi [rad],STIM [ ],Fsee [N],Gamma [ ],Lcerel [ ],q [ ],Lmtc [m],fisomrel [ ]
0.0,1.8,1.0,17.96829455707842,1.554538949967525e-05,1.379339618908106,0.005000064182582814,0.288653,0.5411398390518269
0.0005,1.79999375,1.0,18.279390498334795,0.005624667500954432,1.3793020938419192,0.012955914578422871,0.2886527375,0.5412306173696938
0.001,1.799975,1.0,21.625081488002063,0.01120232687225915,1.3789376178674537,0.035637473267311835,0.28865195,0.5421118678728942
0.0015,1.79994375,1.0,31.084611265206984,0.01674869998537493,1.3780448939715595,0.07064125664123029,0.2886506375,0.5442667670345419
0.002,1.7999,1.0,53.61503225151766,0.022263962330604493,1.3763660142081893,0.1147646773265102,0.2886488,0.548305559148728
0.0025,1.79984375,1.0,97.1735175515817,0.027748288414190646,1.3739325375536162,0.1646256346649824,0.28864643749999996,0.5541277339244688
0.003,1.7997750000000001,1.0,161.02919617745792,0.03320185176598619,1.3712116853531053,0.21733280442105712,0.28864354999999997,0.5605927444429437
0.0035,1.79969375,1.0,237.76358250986456,0.0386248249390826,1.368582262499706,0.2706649593487503,0.2886401375,0.5667956497786921
0.004,1.7996,1.0,321.5521554530778,0.04401737952058274,1.3661538310472565,0.32296622258959656,0.2886362,0.572485242376968
0.0045000000000000005,1.7994937500000001,1.0,409.35618639592195,0.04937968613678823,1.3639207383579346,0.37308237207603384,0.2886317375,0.5776839802073206
0.005,1.799375,1.0,499.5037360777619,0.05471191444429459,1.3618564250128185,0.4202922433273501,0.28862675,0.582461504071883
0.0055,1.79924375,1.0,590.8814748628951,0.06001423317728032,1.3599370560594155,0.46421516121472417,0.2886212375,0.5868791953931161
0.006,1.7991000000000001,1.0,682.6092882605042,0.06528681009112985,1.358144757394275,0.5047180675047468,0.2886152,0.5909832039253695
0.006500000000000001,1.79894375,1.0,773.9743683692393,0.07052981201857275,1.3564656642076165,0.5418355759852868,0.2886086375,0.5948094076563227
0.007,1.798775,1.0,864.3785686991761,0.07574340484746223,1.3548888967057908,0.5757085023406162,0.28860155,0.5983860682236816
0.0075,1.79859375,1.0,953.3333974884964,0.0809277535487332,1.3534053921303941,0.6065387774508048,0.2885939375,0.6017366990215637
0.008,1.7984,1.0,1040.4453515492455,0.08608302214142581,1.3520073669886838,0.6345582966432887,0.2885858,0.6048814208727489
0.0085,1.79819375,1.0,1125.40606387464,0.09120937376522188,1.3506879414598023,0.6600082160351416,0.2885771375,0.6078379072534639
0.009000000000000001,1.797975,1.0,1207.9703027663572,0.09630697058257806,1.34944107692818,0.6831259515679539,0.28856795,0.6106215999849294
0.0095,1.79774375,1.0,1287.9588713392577,0.10137597399941246,1.3482612416504216,0.7041372771447406,0.2885582375,0.6132465164671768
0.01,1.7975,1.0,1365.2327569118083,0.10641654394170892,1.347143540768544,0.7232522464410763,0.288548,0.6157250067049691
0.0105,1.79724375,1.0,1439.7202265941394,0.11142884022781012,1.346083186345427,0.7406631042177196,0.2885372375,0.6180689672480755
0.011,1.796975,1.0,1511.3931840954642,0.11641302253190977,1.3450756867250837,0.7565440716994658,0.28852595000000003,0.6202894465280993
0.0115,1.79669375,1.0,1580.1992960037862,0.12136924727936026,1.3441175478526781,0.7710522236379237,0.2885141375,0.6223951315684304
0.012,1.7964,1.0,1646.13298751006,0.12629767089551383,1.3432052756733737,0.7843280593765238,0.28850180000000003,0.6243945750955472
0.0125,1.79609375,1.0,1709.2313165237676,0.13119844980572284,1.3423353761323338,0.7964968457757717,0.2884889375,0.6262962061490229
0.013000000000000001,1.7957750000000001,1.0,1769.5483105467329,0.1360717393147622,1.341504601363985,0.807670142041299,0.28847555,0.6281078037220206
0.0135,1.79544375,1.0,1827.1375555757784,0.14091769409846402,1.3407100837273436,0.8179472474234172,0.2884616375,0.6298362208115642
0.014,1.7951000000000001,1.0,1882.0442467315008,0.1457364666463965,1.3399493608401112,0.8274165233823056,0.2884472,0.6314873471441322
0.0145,1.79474375,1.0,1934.337330029682,0.15052820942978706,1.3392199731488805,0.8361564726396845,0.2884322375,0.6330669955895178
0.015,1.794375,1.0,1984.0854076373892,0.15529307359211672,1.3385196983902314,0.8442369545961889,0.28841675,0.6345804011536567
0.0155,1.79399375,1.0,2031.401514486106,0.1600312121122025,1.337846045367169,0.8517200295277637,0.2884007375,0.6360333215234847
0.016,1.7936,1.0,2076.3496176133476,0.16474277364888523,1.3371972257411677,0.8586611851554583,0.2883842,0.6374299456392218
0.0165,1.7931937500000001,1.0,2119.0009935101493,0.1694279064484029,1.3365715191390999,0.8651099126046798,0.2883671375,0.6387742745675974
0.017,1.792775,1.0,2159.4393929621374,0.1740867587569935,1.3359672051878382,0.8711103965571504,0.28834955,0.6400702711679626
0.0175,1.7923437500000001,1.0,2197.7550644664466,0.17871947827697798,1.3353826132761284,0.87670215595091,0.2883314375,0.6413217560971776
0.018000000000000002,1.7919,1.0,2234.039516423245,0.1833262123927675,1.3348161631178648,0.8819206031999122,0.2883128,0.6425323243464012
0.0185,1.79144375,1.0,2268.377113138349,0.18790710737796718,1.334266436052695,0.8867975402095967,0.2882936375,0.6437051968387422
0.019,1.790975,1.0,2300.836951020868,0.19246230692949642,1.3337322417686377,0.8913615896577272,0.28827395,0.6448430829211721
0.0195,1.79049375,1.0,2331.4946290624803,0.19699195474427458,1.3332123899537118,0.8956385033157135,0.2882537375,0.6459486708588504
0.02,1.79,1.0,2360.4317056369155,0.20149619451922102,1.3327056902959369,0.899651488054733,0.288233,0.6470246289690821
0.0205,1.78949375,1.0,2387.720648276261,0.2059751679582914,1.3322110937737357,0.9034215222952549,0.2882117375,0.6480733073139611
0.021,1.788975,1.0,2413.454536687527,0.21042901984074017,1.3317273971119932,0.906967540493985,0.28818995000000003,0.6490973660883355
0.021500000000000002,1.78844375,1.0,2437.6966042258828,0.21485789002115244,1.331253728098363,0.9103067566094276,0.2881676375,0.6500987487912495
0.022,1.7879,1.0,2460.506643301858,0.21926191733592013,1.3307892810111444,0.9134547953026846,0.2881448,0.6510792460718438
0.0225,1.78734375,1.0,2481.947535108449,0.2236412406214353,1.3303332501286365,0.9164258486217364,0.28812143749999997,0.6520406373069251
0.023,1.786775,1.0,2502.084991230912,0.22799599871408993,1.3298848297291381,0.9192328271905432,0.28809755,0.6529846910541376
0.0235,1.78619375,1.0,2520.9808439006856,0.23232632949795634,1.3294432752444343,0.9218875046474533,0.28807313749999996,0.6539130369777422
0.024,1.7856,1.0,2538.698132030263,0.23663237055924247,1.3290078520905455,0.924400625026402,0.2880482,0.6548272744348398
0.0245,1.78499375,1.0,2555.311386729261,0.2409142605026742,1.3285777369971836,0.9267819902085607,0.2880227375,0.6557291796868929
0.025,1.784375,1.0,2570.8629907147724,0.24517213290076256,1.3281524263429045,0.9290406223239669,0.28799675,0.6566198503994407
0.025500000000000002,1.78374375,1.0,2585.39672844177,0.24940612132601853,1.3277314165062641,0.9311847874410353,0.2879702375,0.6575003782997373
0.026000000000000002,1.7831000000000001,1.0,2598.957672234168,0.25361635935095306,1.327314203865818,0.9332220691884991,0.2879432,0.6583718493229773
0.0265,1.7824438065223174,1.0,2611.5948209949256,0.2578029805480771,1.3269002848001221,0.9351594343113125,0.2879156398739373,0.6592353437423439
0.027,1.7817824952434496,1.0,2623.7124159847276,0.26196611794833935,1.32648915516255,0.9370032908052418,0.2878878648002249,0.6600919373764171
0.0275,1.781121183964582,1.0,2635.575034377138,0.26610590277448837,1.3260806434738166,0.9387595901192649,0.28786008972651245,0.660942008774559
0.028,1.7804598726857144,1.0,2647.1721702591526,0.2702224693254498,1.325674829046169,0.9404338575398866,0.2878323146528,0.6617854136662901
0.0285,1.7797985614068468,1.0,2658.507746246152,0.27431594588557195,1.325271658045114,0.9420311707768281,0.2878045395790876,0.6626222846702245
0.029,1.7791372501279792,1.0,2669.5857819685516,0.2783864607392031,1.3248710766361576,0.943556222148043,0.28777676450537515,0.6634527537157648
0.029500000000000002,1.7784759388491116,1.0,2680.4103909483433,0.28243414217069157,1.324473030984806,0.9450133528009628,0.2877489894316627,0.6642769520520826
0.03,1.777814627570244,1.0,2690.985777540462,0.28645911846438565,1.324077467256566,0.9464065834888186,0.28772121435795023,0.6650950102569176
0.0305,1.7771533162913764,1.0,2701.3162339385526,0.29046151790463365,1.323684331616944,0.9477396422861346,0.2876934392842378,0.665907058245192
0.031,1.7764920050125088,1.0,2711.4055486491343,0.29444145279721684,1.323293575599375,0.9490159850373889,0.28766566421052536,0.6667132142097294
0.0315,1.7758306937336412,1.0,2721.26152329254,0.29839907308928193,1.3229051149123716,0.950238830556602,0.28763788913681293,0.6675136695262376
0.032,1.7751693824547736,1.0,2730.8898883072975,0.30233450224434505,1.3225188850223568,0.9514111666087972,0.2876101140631005,0.6683085739921422
0.0325,1.774508071175906,1.0,2740.296265893249,0.30624786117230335,1.3221348231384917,0.9525357744868441,0.28758233898938806,0.6690980730916221
0.033,1.7738467598970384,1.0,2749.4863576854154,0.3101392707830541,1.3217528664699376,0.9536152463387756,0.28755456391567563,0.6698823116019723
0.0335,1.7731854486181706,1.0,2758.4659417794437,0.31400885198649453,1.3213729522258553,0.9546520003127278,0.28752678884196314,0.6706614336021625
0.034,1.772524137339303,1.0,2767.2408698448626,0.31785672569252177,1.3209950176154057,0.9556482943179158,0.2874990137682507,0.6714355824811395
0.0345,1.7718628260604354,1.0,2775.817064324769,0.3216830128110332,1.32061899984775,0.9566062385427531,0.2874712386945383,0.6722049009458817
0.035,1.7712015147815678,1.0,2784.200515723979,0.32548783425192584,1.320244836132049,0.957527806855439,0.28744346362082585,0.6729695310292001
0.035500000000000004,1.7705402035027002,1.0,2792.397279984141,0.32927131092509704,1.3198724636774637,0.9584148471984788,0.2874156885471134,0.6737296140972885
0.036000000000000004,1.7698788922238327,1.0,2800.413475946089,0.33303356374044396,1.3195018196931554,0.9592690910763906,0.287387913473401,0.6744852908570231
0.0365,1.769217580944965,1.0,2808.255282900149,0.3367747136078638,1.3191328413882848,0.9600921622250967,0.28736013839968855,0.6752367013630098
0.037,1.7685562696660975,1.0,2815.92650606322,0.34049487052272587,1.3187654877375181,0.9608855843089976,0.2873323633259761,0.6759839407763463
0.0375,1.7678949583872299,1.0,2823.4249926405446,0.3441941154604273,1.3183997713461229,0.9616507875826289,0.2873045882522637,0.676726994919441
0.038,1.7672336471083623,1.0,2830.7726960057057,0.3478726386172888,1.3180354897495676,0.9623891188223316,0.2872768131785512,0.6774662859048235
0.0385,1.7665723358294947,1.0,2837.9733185015134,0.35153054994569566,1.3176726043614722,0.9631018435514846,0.28724903810483876,0.6782019019075242
0.039,1.765911024550627,1.0,2845.0305976586947,0.35516795939803325,1.3173110765954557,0.9637901531896689,0.28722126303112633,0.6789339307073753
0.0395,1.7652497132717595,1.0,2851.9483050180847,0.3587849769266869,1.3169508678651376,0.9644551701939227,0.2871934879574139,0.6796624596923982
0.04,1.7645884019928917,1.0,2858.730244985629,0.36238171248404194,1.316591939584138,0.9650979527903853,0.28716571288370146,0.680387575862097
0.0405,1.763927090714024,1.0,2865.3802537202932,0.36595827602248376,1.3162342531660756,0.9657194993329719,0.287137937809989,0.6811093658306583
0.041,1.7632657794351565,1.0,2871.902198055628,0.36951477749439754,1.3158777700245705,0.9663207523221085,0.28711016273627654,0.6818279158300528
0.0415,1.762604468156289,1.0,2878.299974453099,0.3730513268521687,1.3155224515732418,0.966902602113324,0.2870823876625641,0.6825433117130463
0.042,1.7619431568774213,1.0,2884.577507989666,0.37656803404818256,1.3151682592257092,0.9674658903426137,0.2870546125888517,0.6832556389561102
0.0425,1.7612818455985537,1.0,2890.7387513777835,0.3800650090348245,1.3148151543955924,0.9680114130928966,0.28702683751513924,0.6839649826622428
0.043000000000000003,1.7606205343196861,1.0,2896.7876840184276,0.3835423617644797,1.3144630984965104,0.9685399238235924,0.2869990624414268,0.6846714275636926
0.043500000000000004,1.7599592230408185,1.0,2902.7283110872168,0.3870002021895336,1.3141120529420833,0.9690521360832598,0.2869712873677144,0.685375058024585
0.044,1.759297911761951,1.0,2908.564662653602,0.3904386402623715,1.31376197914593,0.9695487260233863,0.28694351229400195,0.6860759580434597
0.0445,1.7586366004830833,1.0,2914.3007928330057,0.3938577859353788,1.3134128385216703,0.9700303347297455,0.2869157372202895,0.686774211255706
0.045,1.7579752892042158,1.0,2919.940778971903,0.3972577491609407,1.3130645924829236,0.9704975703862424,0.2868879621465771,0.6874699009359087
0.0455,1.7573139779253482,1.0,2925.488720865945,0.4006386398914426,1.3127172024433096,0.9709510102848072,0.28686018707286465,0.6881631100000961
0.046,1.7566526666464806,1.0,2930.9487400113735,0.4040005680792699,1.3123706298164477,0.9713912026936906,0.2868324119991522,0.6888539210078948
0.0465,1.755991355367613,1.0,2936.324978888755,0.40734364367680775,1.3120248360159572,0.9718186685954076,0.2868046369254397,0.6895424161645887
0.047,1.7553300440887452,1.0,2941.6188880446016,0.410667959199073,1.3116798062031596,0.9722339027273744,0.2867768618517273,0.6902286301184977
0.0475,1.7546687328098776,1.0,2946.832966322647,0.4139736225502569,1.3113355164566436,0.9726373770995079,0.28674908677801486,0.6909126154103158
0.048,1.75400742153101,1.0,2951.972805603721,0.4172607593930078,1.31099191593777,0.9730295412691466,0.28672131170430243,0.6915944777466676
0.0485,1.7533461102521424,1.0,2957.0403538080755,0.42052946917821865,1.3106489858362156,0.9734108222152119,0.28669353663059,0.6922742589251618
0.049,1.7526847989732748,1.0,2962.037569287796,0.4237798513567825,1.3103067073416563,0.9737816267331515,0.2866657615568775,0.6929520005700882
0.0495,1.7520234876944072,1.0,2966.966420551643,0.42701200537959216,1.309965061643768,0.9741423425731688,0.2866379864831651,0.6936277441332117
0.05,1.7513621764155396,1.0,2971.8288859965655,0.4302260306975407,1.3096240299322268,0.9744933395042825,0.28661021140945264,0.6943015308945393
0.0505,1.750700865136672,1.0,2976.6269536480927,0.433422026761521,1.3092835933967089,0.9748349703096882,0.2865824363357402,0.6949734019630717
0.051000000000000004,1.7500395538578044,1.0,2981.3626209081553,0.4366000930224261,1.3089437332268905,0.9751675717184226,0.2865546612620278,0.6956433982775252
0.051500000000000004,1.7493782425789368,1.0,2986.0378943107553,0.43976032893114886,1.3086044306124478,0.9754914652779456,0.28652688618831534,0.6963115606070374
0.052000000000000005,1.7487169313000692,1.0,2990.654789285512,0.4429028339385823,1.3082656667430566,0.975806958171875,0.2864991111146029,0.6969779295518457
0.0525,1.7480556200212016,1.0,2995.21532992902,0.4460277074956194,1.3079274228083932,0.9761143439867697,0.2864713360408905,0.6976425455439446
0.053,1.747394308742334,1.0,2999.7215487841545,0.44913504905315305,1.3075896799981337,0.9764139034315552,0.28644356096717805,0.6983054488477223
0.0535,1.7467329974634662,1.0,3004.175486627052,0.45222495806207624,1.3072524195019541,0.9767059050129001,0.28641578589346556,0.6989666795605713
0.054,1.7460716861845986,1.0,3008.579192262311,0.455297533973282,1.3069156225095306,0.9769906056695938,0.2863880108197531,0.6996262776134798
0.0545,1.745410374905731,1.0,3012.934722325317,0.45835287623766313,1.3065792702105394,0.9772682513687437,0.2863602357460407,0.7002842827715978
0.055,1.7447490636268634,1.0,3017.244141093202,0.46139108430611275,1.3062433437946566,0.9775390776663925,0.28633246067232826,0.7009407346347825
0.0555,1.7440877523479958,1.0,3021.505659278365,0.4644122099781686,1.305907857807878,0.9778033077329753,0.2863046855986158,0.7015956075618467
0.056,1.7434264410691283,1.0,3025.7247624669285,0.46741640472569135,1.305572763960477,0.9780611610916189,0.2862769105249034,0.7022489984871001
0.0565,1.7427651297902607,1.0,3029.9030767281633,0.4704037672536432,1.3052380474040002,0.9783128452319346,0.28624913545119096,0.7029009388296982
0.057,1.742103818511393,1.0,3034.041544706658,0.4733743872434264,1.3049036992313745,0.9785585586978738,0.2862213603774785,0.7035514483259679
0.0575,1.7414425072325255,1.0,3038.141112783934,0.47632835437644316,1.3045697105355276,0.978798492006807,0.28619358530376604,0.7042005466336254
0.058,1.7407811959536579,1.0,3042.202731006229,0.4792657583340957,1.3042360724093862,0.9790328280383324,0.2861658102300536,0.7048482533319858
0.0585,1.7401198846747903,1.0,3046.2273530146267,0.4821866887977862,1.3039027759458781,0.9792617424012549,0.2861380351563412,0.7054945879221601
0.059000000000000004,1.7394585733959227,1.0,3050.215935976635,0.4850912354489169,1.3035698122379304,0.9794854037801269,0.28611026008262874,0.7061395698272566
0.059500000000000004,1.738797262117055,1.0,3054.169440519527,0.48797948796889,1.3032371723784706,0.9797039742626372,0.2860824850089163,0.7067832183925693
0.06,1.7381359508381875,1.0,3058.088830665712,0.4908515360391077,1.3029048474604255,0.9799176096490527,0.2860547099352039,0.7074255528857666
0.0605,1.7374746395593197,1.0,3061.9750737693826,0.4937074693409722,1.3025728285767226,0.9801264597448247,0.28602693486149144,0.7080665924970703
0.061,1.736813328280452,1.0,3065.829140455443,0.4965473775558857,1.3022411068202893,0.980330668637401,0.285999159787779,0.708706356339434
0.0615,1.7361520170015845,1.0,3069.6520045598463,0.49937135036525043,1.3019096732840525,0.9805303749582092,0.2859713847140666,0.7093448634487138
0.062,1.735490705722717,1.0,3073.44464307152,0.5021794774504686,1.3015785190609401,0.9807257121307141,0.2859436096403541,0.7099821327838335
0.0625,1.7348293944438493,1.0,3077.208036077091,0.5049718484929424,1.3012476352438789,0.9809168086053885,0.28591583456664166,0.710618183226948
0.063,1.7341680831649817,1.0,3080.943166705839,0.5077485531740741,1.300917012925796,0.9811037880823782,0.2858880594929292,0.7112530335835978
0.0635,1.7335067718861141,1.0,3084.651021077385,0.5105096811752659,1.3005866431996194,0.981286769722597,0.2858602844192168,0.7118867025828595
0.064,1.7328454606072465,1.0,3088.3325882511044,0.5132553221779198,1.3002565171582756,0.9814658683479333,0.28583250934550436,0.7125192088774941
0.0645,1.732184149328379,1.0,3091.988860177088,0.5159855658634382,1.2999266258946924,0.9816411946312,0.2858047342717919,0.7131505710440855
0.065,1.7315228380495113,1.0,3095.6203269523826,0.5187004887066189,1.2995969648094785,0.9818128545771476,0.2857769591980795,0.7137807993525132
0.0655,1.7308615267706438,1.0,3099.226872417148,0.521400159331588,1.2992675344885882,0.9819809501525495,0.285749184124367,0.7144098941362298
0.066,1.7302002154917762,1.0,3102.8106615585143,0.5240847067569142,1.2989383160721595,0.9821455828618852,0.2857214090506546,0.7150378928059364
0.0665,1.7295389042129083,1.0,3106.372138259824,0.5267542112926985,1.2986093054110968,0.9823068480805843,0.28569363397694214,0.7156648045979028
0.067,1.7288775929340408,1.0,3109.911747812509,0.5294087532490421,1.2982804983563054,0.9824648378778212,0.2856658589032297,0.7162906387127361
0.0675,1.7282162816551732,1.0,3113.429936896816,0.5320484129360461,1.2979518907586904,0.9826196411544643,0.2856380838295173,0.7169154043154382
0.068,1.7275549703763056,1.0,3116.9271535634794,0.5346732706638115,1.2976234784691572,0.98277134377434,0.28561030875580484,0.7175391105354565
0.0685,1.726893659097438,1.0,3120.4038472154934,0.5372834067424396,1.2972952573386103,0.9829200286891778,0.2855825336820924,0.7181617664667395
0.069,1.7262323478185704,1.0,3123.8604685903356,0.5398789014820313,1.296967223217955,0.9830657760575833,0.28555475860838,0.7187833811677847
0.0695,1.7255710365397028,1.0,3127.2974697425007,0.5424598351926878,1.2966393719580966,0.9832086633583642,0.28552698353466754,0.71940396366169
0.07,1.7249097252608352,1.0,3130.7153040265985,0.5450262881845103,1.29631169940994,0.9833487654985117,0.28549920846095506,0.7200235229362034
0.07050000000000001,1.7242484139819676,1.0,3134.114426080788,0.5475783407675998,1.2959842014243903,0.9834861549161252,0.2854714333872426,0.7206420679437691
