Time [s],Phi [rad],STIM [ ],Fsee [N],Gamma [ ],Lcerel [ ],q [ ],Lmtc [m],fisomrel [ ]
0.0,1.8,1.0,17.96545830277131,1.0010632359805096e-05,1.3793399366659327,0.005000026708265967,0.288653,0.5411390703134126
0.0005,1.79999375,1.0,18.27495098574958,0.005619163789424078,1.3793025869795972,0.012940547465809662,0.2886527375,0.541229424459774
0.001,1.799975,1.0,21.616670712713184,0.011196854032198337,1.3789384768547999,0.03560864489618233,0.28865195,0.5421097919609832
0.0015,1.79994375,1.0,31.067461145696722,0.016743257843618107,1.3780463549429909,0.07060180304174626,0.2886506375,0.5442632446247391
0.002,1.7999,1.0,53.580350274178386,0.022258550714963767,1.3763682638749548,0.11471795374064761,0.2886488,0.5483001592721697
0.0025,1.79984375,1.0,97.11659691639593,0.02774290715343189,1.373935280054437,0.16457479911498157,0.28864643749999996,0.554121193656281
0.003,1.7997750000000001,1.0,160.95583835067487,0.03319650068984585,1.3712144309134422,0.21728035295839965,0.28864354999999997,0.5605862445204377
0.0035,1.79969375,1.0,237.68110810224795,0.03861950387825115,1.3685848027211702,0.2706127840765347,0.2886401375,0.5667896785809823
0.004,1.7996,1.0,321.4646953497374,0.044012088306696874,1.366156147381278,0.3229156976880319,0.2886362,0.5724798333383285
0.0045000000000000005,1.7994937500000001,1.0,409.26583373060294,0.04937442460242008,1.3639228591673052,0.3730344070457372,0.2886317375,0.5776790579575695
0.005,1.799375,1.0,499.41172832523023,0.05470668242294501,1.3618583800833532,0.420247365607536,0.28862675,0.5824569922303937
0.0055,1.79924375,1.0,590.7887629956517,0.060009030503486105,1.3599388673559474,0.46417360975096267,0.2886212375,0.5868750375207836
0.006,1.7991000000000001,1.0,682.5165777274424,0.06528163660024296,1.3581464425696586,0.5046798805981234,0.2886152,0.5909793548300328
0.006500000000000001,1.79894375,1.0,773.8607639828261,0.07052466726696129,1.3564676034635397,0.5418008920197706,0.2886086375,0.5948049989826552
0.007,1.798775,1.0,864.2897792696485,0.07573828929108903,1.3548903308994618,0.575676660552578,0.28860155,0.5983828221749699
0.0075,1.79859375,1.0,953.2561001502949,0.08092266683314904,1.353406581011203,0.6065097232624385,0.2885939375,0.6017340194450638
0.008,1.7984,1.0,1040.3573581043538,0.08607796378528945,1.3520086624881669,0.6345320047708928,0.2885858,0.6048785125423847
0.0085,1.79819375,1.0,1125.3178009983435,0.0912043437529463,1.3506891909111336,0.6599843514474392,0.2885771375,0.6078351128128014
0.009000000000000001,1.797975,1.0,1207.8821678823335,0.0963019687956064,1.3494422811736144,0.6831042818686135,0.28856795,0.6106189162250657
0.0095,1.79774375,1.0,1287.8722094802633,0.10137100022191531,1.3482623884081804,0.7041175768506189,0.2885582375,0.6132439694522632
0.01,1.7975,1.0,1365.151062055936,0.10641159821238207,1.3471445907587207,0.723234295113837,0.288548,0.6157226821012765
0.0105,1.79724375,1.0,1439.6512819733564,0.11142392278018708,1.3460840492323982,0.7406466770630765,0.2885372375,0.6180670627133513
0.011,1.796975,1.0,1511.3111983184333,0.1164081320521803,1.3450766882068699,0.7565291612641504,0.28852595000000003,0.6202872425260801
0.0115,1.79669375,1.0,1580.1049485142044,0.12136438365137164,1.344118674967803,0.7710386691611248,0.2885141375,0.6223926579668484
0.012,1.7964,1.0,1646.0476760282913,0.1262928345713711,1.3432062742192703,0.7843156122998419,0.28850180000000003,0.6243923894659663
0.0125,1.79609375,1.0,1709.1708214510854,0.1311936412502455,1.3423360710139196,0.7964853192302083,0.2884889375,0.6262946890393897
0.013000000000000001,1.7957750000000001,1.0,1769.4954162731578,0.13606695799272706,1.3415051984928548,0.8076595227550479,0.28847555,0.6281065031962878
0.0135,1.79544375,1.0,1827.0735230168054,0.1409129390695784,1.3407107951151538,0.8179375247301898,0.2884616375,0.6298346750382644
0.014,1.7951000000000001,1.0,1881.9706823680328,0.14573173757892294,1.3399501661150597,0.827407601861976,0.2884472,0.6314856012702275
0.0145,1.79474375,1.0,1934.2810076923447,0.15052350768850267,1.3392205812910265,0.8361481736955949,0.2884322375,0.6330656799380678
0.015,1.794375,1.0,1984.0568437100749,0.15528839965536698,1.3385200029178446,0.8442291817556001,0.28841675,0.634579743700582
0.0155,1.79399375,1.0,2031.368495245144,0.1600265637365652,1.3378463932703042,0.8517128426541039,0.2884007375,0.6360325719204304
0.016,1.7936,1.0,2076.30270771602,0.16473815018914673,1.337197714623196,0.858654560555399,0.2883842,0.6374288943013193
0.0165,1.7931937500000001,1.0,2118.940526899727,0.16942330781063772,1.3365721429321333,0.8651037980554476,0.2883671375,0.6387729355933406
0.017,1.792775,1.0,2159.390296783635,0.17408218685507298,1.3359677069143219,0.8711046741370921,0.28834955,0.6400691961439169
0.0175,1.7923437500000001,1.0,2197.72238453431,0.17871493354344126,1.335382944316144,0.8766967774128976,0.2883314375,0.6413210480288083
0.018000000000000002,1.7919,1.0,2234.0103002235505,0.18332169360567988,1.3348164566577343,0.88191557309626,0.2883128,0.6425316975483404
0.0185,1.79144375,1.0,2268.336052750015,0.1879026127717262,1.334266845459227,0.8867928673663825,0.2882936375,0.643704324064851
0.019,1.790975,1.0,2300.7853933659735,0.19245783624147028,1.333732752203166,0.8913572407910856,0.28827395,0.6448419965143504
0.0195,1.79049375,1.0,2331.4436435888,0.196987508760478,1.3332128913937422,0.8956344260788643,0.2882537375,0.6459476052583615
0.02,1.79,1.0,2360.3949448677,0.20149177476406616,1.3327060496130816,0.899647630403871,0.288233,0.6470238665524799
0.0205,1.78949375,1.0,2387.703117867549,0.20597077532483052,1.332211264141906,0.9034178564348853,0.2882117375,0.6480729463559847
0.021,1.788975,1.0,2413.4364174927546,0.21042465151536677,1.3317275722609383,0.9069640916086705,0.28818995000000003,0.6490969955416581
0.021500000000000002,1.78844375,1.0,2437.6671653247245,0.21485354440827062,1.3312540112509008,0.9103035291282507,0.2881676375,0.6500981506064671
0.022,1.7879,1.0,2460.4657276033904,0.21925759392571237,1.3307896727231499,0.9134517727222514,0.2881448,0.6510784197057125
0.0225,1.78734375,1.0,2481.9046499274996,0.22363694074168075,1.3303336589185795,0.9164229986538224,0.28812143749999997,0.6520397761016059
0.023,1.786775,1.0,2502.0530117070566,0.22799172483368524,1.3298851333347048,0.9192301151109739,0.28809755,0.6529840523110461
0.0235,1.78619375,1.0,2520.9637366138736,0.23232208223526826,1.3294434370466552,0.9218849137940734,0.28807313749999996,0.6539126970245106
0.024,1.7856,1.0,2538.6918679547157,0.23662814897997228,1.32900791112956,0.9243981531779685,0.2880482,0.6548271505553683
0.0245,1.78499375,1.0,2555.2943912407213,0.24091006110133975,1.3285778966585486,0.9267796632758784,0.2880227375,0.6557288451130234
0.025,1.784375,1.0,2570.8300663831287,0.2451679546329131,1.32815273470875,0.9290384385117585,0.28799675,0.6566192050483697
0.025500000000000002,1.78374375,1.0,2585.3496462967014,0.24940196328600014,1.3277318562321163,0.9311827341443892,0.2879702375,0.6574994592176386
0.026000000000000002,1.7831000000000001,1.0,2598.911198921306,0.2536122238442007,1.3273146367715623,0.933220116572702,0.2879432,0.6583709456476412
0.0265,1.78244375,1.0,2611.566693738784,0.25779887069341456,1.3269005206482944,0.9351575469276782,0.2879156375,0.6592348520404145
0.027,1.781775,1.0,2623.35488239421,0.2619620342923329,1.3264890850412132,0.9370014474229729,0.28788755,0.6600920833831361
0.0275,1.7810937500000001,1.0,2634.315403901639,0.26610184509964674,1.326079907129219,0.9387577327556896,0.2878589375,0.6609435400720659
0.028,1.7804,1.0,2644.488708576604,0.27021843357404707,1.3256725640912121,0.9404318569236557,0.2878298,0.6617901179791306
0.0285,1.77969375,1.0,2653.915985931773,0.2743119301742249,1.325266633106093,0.9420288551571846,0.2878001375,0.6626327085070993
0.029,1.778975,1.0,2662.6390965368523,0.2783824653588713,1.3248616913527616,0.9435533815282414,0.28776995,0.6634721986333645
0.029500000000000002,1.7782437500000001,1.0,2670.691981118128,0.28243016591058695,1.3244573943634235,0.9450097521248345,0.2877392375,0.6643093088102612
0.03,1.7775,1.0,2678.1187445503656,0.28645516456233144,1.3240533089812734,0.9464019554513678,0.287708,0.6651449392164777
0.0305,1.77674375,1.0,2684.9524677763566,0.2904575888273084,1.3236491076795167,0.9477337024700083,0.2876762375,0.6659797675326933
0.031,1.775975,1.0,2691.2203460298747,0.2944375632822658,1.3232445204128676,0.9490084446178197,0.28764395,0.666814349563314
0.0315,1.7751937500000001,1.0,2696.9499024698907,0.2983952125039517,1.3228392771360393,0.950229389273481,0.2876111375,0.6676492383235957
0.032,1.7744,1.0,2702.1689575003206,0.30233066106911405,1.3224331078037452,0.9513995200317241,0.2875778,0.668484984030671
0.0325,1.77359375,1.0,2706.905599707272,0.30624403355450097,1.3220257423706991,0.9525216150585847,0.2875439375,0.6693221340899238
0.033,1.772775,1.0,2711.1881584121866,0.3101354545368604,1.3216169107916145,0.9535982637297228,0.28750955,0.6701612330767178
0.0335,1.7719437500000002,1.0,2715.0423966547246,0.314005046239304,1.3212063683683655,0.9546318839868392,0.2874746375,0.6710027707895596
0.034,1.7711000000000001,1.0,2718.490681032971,0.31785292892351275,1.3207939030100042,0.9556247367839297,0.2874392,0.6718471677028317
0.0345,1.7702437500000001,1.0,2721.5668071677524,0.32167923471893023,1.3203791999982566,0.956578926990876,0.2874032375,0.6726950516851948
0.035,1.7693750000000001,1.0,2724.287615195418,0.32548408155963837,1.319962100340134,0.9574964367647213,0.28736675,0.6735467294194196
0.035500000000000004,1.76849375,1.0,2726.6700527047497,0.32926758737971923,1.3195424450426474,0.9583791217975514,0.2873297375,0.6744025057913479
0.036000000000000004,1.7676,1.0,2728.7311635652213,0.3330298701132547,1.319120075112808,0.959228720835915,0.2872922,0.6752626838647824
0.0365,1.76669375,1.0,2730.488077317002,0.33677104769432675,1.3186948315576272,0.9600468643798713,0.2872541375,0.6761275648547691
0.037,1.765775,1.0,2731.9579991199857,0.3404912380570175,1.318266555384116,0.9608350826407822,0.28721555,0.6769974480992649
0.0375,1.76484375,1.0,2733.158200264832,0.34419055913540875,1.3178350875992855,0.9615948128285698,0.2871764375,0.6778726310291918
0.038,1.7639,1.0,2734.1060092429984,0.34786912886358257,1.317400269210147,0.96232740583174,0.28713679999999997,0.6787534091368821
0.0385,1.76294375,1.0,2734.8188033784218,0.3515270651756209,1.3169619412237117,0.9630341323468876,0.28709663750000003,0.6796400759429093
0.039,1.761975,1.0,2735.3046716829194,0.3551644797688322,1.3165200293570298,0.9637161951421925,0.28705595,0.6805327519637276
0.0395,1.7609937500000001,1.0,2735.58371100992,0.3587814937718482,1.316074350590989,0.9643747190806718,0.2870147375,0.6814317758242492
0.04,1.76,1.0,2735.6733727152423,0.3623782242914691,1.3156247461907993,0.9650107659326138,0.286973,0.6823374349234488
0.0405,1.7589937500000001,1.0,2735.5830132004153,0.3659547824263679,1.3151711311203054,0.9656253426700192,0.2869307375,0.6832498664169238
0.041,1.757975,1.0,2735.322006650273,0.3695112792752178,1.3147134203433524,0.9662193997878398,0.28688795,0.6841692061727946
0.0415,1.75694375,1.0,2734.899742031548,0.3730478259366917,1.3142515288237848,0.9667938350562515,0.2868446375,0.6850955887497256
0.042,1.7559,1.0,2734.325620251785,0.37656453350946273,1.313785371525448,0.9673494969862041,0.28680079999999997,0.6860291473744791
0.0425,1.75484375,1.0,2733.6090514786533,0.38006151309220393,1.3133148634121865,0.9678871880328856,0.2867564375,0.6869700139190145
0.043000000000000003,1.753775,1.0,2732.759452618923,0.3835388757835883,1.3128399194478455,0.9684076675593917,0.28671155,0.6879183188771223
0.043500000000000004,1.75269375,1.0,2731.786244959079,0.3869967326822889,1.3123604545962695,0.9689116545807952,0.28666613750000003,0.6888741913405991
0.044,1.7516,1.0,2730.6988519646893,0.39043519488697875,1.3118763838213034,0.9693998303069333,0.2866202,0.6898377589749587
0.0445,1.75049375,1.0,2729.5097130367812,0.39385437129590073,1.3113875946743943,0.9698728380435929,0.2865737375,0.6908092024327014
0.045,1.7493750000000001,1.0,2728.2230222507833,0.397254369237865,1.31089404962977,0.9703312935071186,0.28652675,0.6917885519923536
0.0455,1.74824375,1.0,2726.8438682579917,0.4006352957032066,1.3103957030401505,0.9707757803623085,0.2864792375,0.6927758531065393
0.046,1.7471,1.0,2725.3774560979764,0.403997257655528,1.3098925081980057,0.9712068527403003,0.2864312,0.6937711523046841
0.0465,1.7459474113830173,1.0,2724.013425088745,0.4073403603705566,1.3093843937595773,0.971625035053244,0.28638279127808675,0.6947745436799071
0.047,1.744794478753368,1.0,2723.13427737154,0.4106647127034116,1.308871714317144,0.9720308571355669,0.28633436810764146,0.6957852809145044
0.0475,1.743641546123719,1.0,2722.721381619307,0.4139704188101581,1.3083547926579568,0.9724248198528256,0.28628594493719617,0.6968026844542999
0.048,1.7424886134940698,1.0,2722.741532794037,0.41725758223528847,1.3078339300117647,0.9728073980939465,0.28623752176675094,0.6978261209614538
0.0485,1.7413356808644205,1.0,2723.161634139248,0.42052630652329487,1.3073094276083166,0.9731790438767758,0.28618909859630565,0.6988549607877832
0.049,1.7401827482347714,1.0,2723.948671865222,0.42377669521866956,1.306781586677362,0.973540187668452,0.2861406754258604,0.6998885780475773
0.0495,1.7390298156051223,1.0,2725.0696918460426,0.42700885186590476,1.30625070844865,0.9738912396180867,0.2860922522554151,0.7009263506846298
0.05,1.737876882975473,1.0,2726.49919480494,0.43022287774803347,1.3057170267018292,0.9742325859220629,0.28604382908496984,0.7019677920427074
0.0505,1.7367239503458238,1.0,2728.204966973134,0.4334188774001655,1.3051808365209203,0.974564599359856,0.2859954059145246,0.7030122991721661
0.051000000000000004,1.7355710177161747,1.0,2730.1675510656687,0.4365969506010707,1.3046423170954111,0.9748876275122372,0.28594698274407937,0.7040594981975095
0.051500000000000004,1.7344180850865254,1.0,2732.3679474084274,0.4397571969659911,1.3041016435452026,0.9752020019393547,0.2858985595736341,0.7051090254882223
0.052000000000000005,1.7332651524568763,1.0,2734.787157879872,0.4428997161101689,1.3035589909901966,0.9755080393312148,0.2858501364031888,0.7061605197353755
0.0525,1.7321122198272272,1.0,2737.406177887449,0.4460246076488462,1.303014534550294,0.9758060423088558,0.28580171323274356,0.7072136219747089
0.053,1.730959287197578,1.0,2740.2070161571296,0.4491319704926381,1.302468440027395,0.9760962995207723,0.28575329006229827,0.708267993582252
0.0535,1.7298063545679288,1.0,2743.1797639822416,0.45222189862846573,1.301920799773734,0.9763790819974965,0.28570486689185304,0.7093234396173111
0.054,1.7286534219382796,1.0,2746.2954904541425,0.4552945002939284,1.301371878466163,0.9766546610326193,0.28565644372140775,0.7103794351714805
0.0545,1.7275004893086305,1.0,2749.545078421768,0.45834987015720674,1.300821760852836,0.9769232840796308,0.28560802055096246,0.71143580420089
0.055,1.7263475566789812,1.0,2752.919398592985,0.4613881028864814,1.3002705316819085,0.9771851881172059,0.2855595973805172,0.7124923718222703
0.0555,1.725194624049332,1.0,2756.4093073661616,0.46440929314993307,1.2997182757015346,0.9774406001820346,0.28551117421007194,0.7135489643191928
0.056,1.724041691419683,1.0,2760.0056448215387,0.46741353561574234,1.2991650776598695,0.9776897378703258,0.2854627510396267,0.7146054091478451
0.0565,1.7228887587900337,1.0,2763.699232871087,0.4704009249520899,1.2986110223050675,0.9779328098100637,0.2854143278691814,0.7156615349423548
0.057,1.7217358261603846,1.0,2767.480873568329,0.47337155582715645,1.2980561943852837,0.9781700161059538,0.28536590469873613,0.7167171715196491
0.0575,1.7205828935307355,1.0,2771.341347577009,0.4763255229091226,1.2975006786486727,0.9784015487588393,0.2853174815282909,0.7177721498838623
0.058,1.7194299609010861,1.0,2775.2714127987324,0.47926292086616906,1.296944559843389,0.9786275920612478,0.2852690583578456,0.7188263022302803
0.0585,1.718277028271437,1.0,2779.2670599908497,0.4821838363021702,1.2963878753647096,0.9788483196456683,0.2852206351874004,0.7198795514566116
0.059000000000000004,1.717124095641788,1.0,2783.318306065815,0.4850883690341193,1.2958307162928826,0.9790639023780151,0.2851722120169551,0.7209317196991072
0.059500000000000004,1.7159711630121386,1.0,2787.416496921451,0.48797661644206825,1.2952731615046598,0.9792745035602567,0.2851237888465098,0.7219826533642957
0.06,1.7148182303824895,1.0,2791.558214044325,0.49084866710337055,1.2947152425980737,0.9794802768784436,0.28507536567606456,0.7230322888404291
0.0605,1.7136652977528404,1.0,2795.7400294201148,0.4937046095953797,1.2941569911711577,0.9796813701137075,0.2850269425056193,0.7240805629627918
0.061,1.7125123651231913,1.0,2799.958505290154,0.496544532495449,1.293598438821945,0.979877925415481,0.28497851933517404,0.7251274130144024
0.0615,1.711359432493542,1.0,2804.2101939290765,0.49936852438093193,1.2930396171484686,0.9800700795600663,0.28493009616472875,0.7261727767266548
0.062,1.7102064998638928,1.0,2808.4916374453983,0.5021766738291819,1.2924805577487615,0.9802579641954471,0.28488167299428346,0.7272165922798897
0.0625,1.7090535672342437,1.0,2812.7993676038063,0.5049690694175523,1.291921292220857,0.98044170607317,0.28483324982383823,0.7282587983039064
0.063,1.7079006346045944,1.0,2817.1299056694124,0.5077457997233965,1.2913618521627879,0.9806214272680746,0.28478482665339294,0.7292993338784113
0.0635,1.7067477019749453,1.0,2821.479762274982,0.510506953324068,1.2908022691725873,0.9807972453865902,0.2847364034829477,0.7303381385333995
0.064,1.7055947693452962,1.0,2825.845437309128,0.5132526187969202,1.2902425748482886,0.9809692737642792,0.2846879803125024,0.7313751522494757
0.0645,1.704441836715647,1.0,2830.223419827616,0.5159828847193065,1.2896828007879249,0.9811376216532529,0.2846395571420572,0.7324103154581105
0.065,1.7032889040859978,1.0,2834.6153502181182,0.5186978169397529,1.2891229325450022,0.9813023905170084,0.2845911339716119,0.7334436539431699
0.0655,1.7021359714563487,1.0,2839.0140537555812,0.5213975296601524,1.28856303428362,0.9814636854677733,0.28454271080116667,0.7344750486129793
0.066,1.7009830388266995,1.0,2843.4175282014103,0.524082109623777,1.2880031239048073,0.9816216037505735,0.2844942876307214,0.7355044662661742
0.0665,1.6998301061970502,1.0,2847.8248183945784,0.5267516383603097,1.2874432099364748,0.9817762384081251,0.2844458644602761,0.7365318911397185
0.067,1.698677173567401,1.0,2852.2349662070615,0.5294061973994337,1.2868833009065332,0.9819276792630397,0.28439744128983085,0.7375573075923836
0.0675,1.697524240937752,1.0,2856.6470105438298,0.5320458682708319,1.2863234053428936,0.9820760130523492,0.28434901811938557,0.7385807001047483
0.068,1.6963713083081027,1.0,2861.05998734499,0.5346707325041875,1.2857635317734668,0.9822213235555066,0.28430059494894033,0.7396020532791927
0.0685,1.6952183756784536,1.0,2865.4729295887046,0.5372808716291834,1.2852036887261633,0.9823636917162201,0.28425217177849504,0.7406213518398908
0.069,1.6940654430488045,1.0,2869.884867296455,0.5398763671755027,1.2846438847288946,0.9825031957584581,0.28420374860804976,0.7416385806327926
0.0695,1.6929125104191551,1.0,2874.294827539621,0.5424573006728286,1.284084128309571,0.982639911296944,0.2841553254376045,0.7426537246256097
0.07,1.691759577789506,1.0,2878.7018344473336,0.5450237536508439,1.2835244279961033,0.9827739114424353,0.28410690226715923,0.7436667689077883
0.07050000000000001,1.690606645159857,1.0,2883.1049092167154,0.5475758076392317,1.282964792316403,0.982905266902072,0.284058479096714,0.7446776986904814
0.07100000000000001,1.6894537125302076,1.0,2887.5030701239225,0.5501135441676753,1.2824052297983803,0.9830340460750502,0.2840100559262687,0.7456864993065179
0.07150000000000001,1.6883007799005585,1.0,2891.8953325374778,0.5526370447658575,1.2818457489699466,0.983160315143874,0.2839616327558234,0.7466931562103629
0.07200000000000001,1.6871478472709094,1.0,2896.280708932772,0.5551463909634614,1.2812863583590124,0.9832841381614168,0.2839132095853782,0.747697654978078
0.0725,1.6859949146412603,1.0,2900.6582089082854,0.55764166429017,1.2807270664934884,0.9834055771340086,0.28386478641493296,0.7486999813072721
