Time [s],Phi [rad],STIM [ ],Fsee [N],Gamma [ ],Lcerel [ ],q [ ],Lmtc [m],fisomrel [ ]
0.0,1.8,1.0,17.966473134612862,1.0000409270521454e-05,1.3793398229670546,0.0050000266539508235,0.288653,0.5411393453804965
0.0005,1.79999375,1.0,18.275868536822237,0.005619153623677868,1.3793024850538123,0.012940517035058767,0.2886527375,0.5412296710204163
0.001,1.799975,1.0,21.617525348734418,0.011196843923474226,1.378938389563718,0.035608584952615444,0.28865195,0.5421100029172703
0.0015,1.79994375,1.0,31.068293197337532,0.016743247791595584,1.3780462840534982,0.0706017186999708,0.2886506375,0.544263415539993
0.002,1.7999,1.0,53.58116664137742,0.022258540719325492,1.3763682109124524,0.11471785323670705,0.2886488,0.5483002863984685
0.0025,1.79984375,1.0,97.11735654779157,0.027742897213861046,1.3739352434492438,0.1645746909707447,0.28864643749999996,0.5541212809520242
0.003,1.7997750000000001,1.0,160.9565023510446,0.033196490806028225,1.3712144060591223,0.21728024329889192,0.28864354999999997,0.5605863033615214
0.0035,1.79969375,1.0,237.68167144219058,0.03861949404987421,1.368584785368739,0.2706126767088383,0.2886401375,0.5667897193707929
0.004,1.7996,1.0,321.4651696557904,0.044012078533449524,1.3661561348186866,0.3229155950144026,0.2886362,0.5724798626742341
0.0045000000000000005,1.7994937500000001,1.0,409.266233044696,0.049374414883992315,1.3639228497938618,0.3730343105276021,0.2886317375,0.577679079712737
0.005,1.799375,1.0,499.4120602076926,0.05470667275902241,1.361858373030867,0.420247276072503,0.28862675,0.5824570085059115
0.0055,1.79924375,1.0,590.7890440734399,0.0600090208937824,1.359938861864362,0.46417352736859785,0.2886212375,0.5868750501268742
0.006,1.7991000000000001,1.0,682.5168071527457,0.06528162704444683,1.3581464383993131,0.5046798053874061,0.2886152,0.590979364355507
0.006500000000000001,1.79894375,1.0,773.8798253218018,0.07052465804413433,1.3564672780716722,0.5418006198586554,0.2886086375,0.5948057387250418
0.007,1.798775,1.0,864.2847536887681,0.07573827978401017,1.3548904120786283,0.5756766507801537,0.28860155,0.5983826384396091
0.0075,1.79859375,1.0,953.2369054853092,0.080922657147225,1.3534068762444782,0.60650984831722,0.2885939375,0.6017333540278065
0.008,1.7984,1.0,1040.3572490351553,0.08607795444164615,1.352008664093992,0.6345319557315614,0.2885858,0.6048785089373826
0.0085,1.79819375,1.0,1125.3209732606638,0.09120433449916945,1.3506891460036654,0.6599842801435252,0.2885771375,0.6078352132500633
0.009000000000000001,1.797975,1.0,1207.8855100239343,0.09630195956442072,1.3494422355069136,0.6831042150322324,0.28856795,0.6106190179972282
0.0095,1.79774375,1.0,1287.8767876129648,0.10137099102841432,1.3482623278268253,0.7041175065783447,0.2885582375,0.6132441040071457
0.01,1.7975,1.0,1365.1640024375731,0.1064115892285565,1.3471444244392563,0.7232341751463003,0.288548,0.6157230503212292
0.0105,1.79724375,1.0,1439.6619513117669,0.11142391367961219,1.3460839156973063,0.7406465792608057,0.2885372375,0.6180673574477671
0.011,1.796975,1.0,1511.3133682539803,0.11640812281015589,1.3450766617000818,0.7565291194916156,0.28852595000000003,0.6202873008607377
0.0115,1.79669375,1.0,1580.1134330727011,0.12136437473610637,1.3441185736062917,0.7710385968284577,0.2885141375,0.6223928804182755
0.012,1.7964,1.0,1646.0590630204142,0.12629282588678223,1.3432061409363676,0.7843155304788515,0.28850180000000003,0.6243926811975963
0.0125,1.79609375,1.0,1709.1700580380011,0.13119363221918642,1.3423360797830048,0.7964853007320426,0.2884889375,0.6262946698941458
0.013000000000000001,1.7957750000000001,1.0,1769.491677362444,0.13606694902544028,1.3415052407021382,0.8076595194723791,0.28847555,0.6281064112658632
0.0135,1.79544375,1.0,1827.0732544648647,0.14091293031596094,1.3407107980987336,0.8179375074808567,0.2884616375,0.6298346685552423
0.014,1.7951000000000001,1.0,1881.981803236555,0.14573172951659577,1.339950044379063,0.8274075407818172,0.2884472,0.6314858651998503
0.0145,1.79474375,1.0,1934.2825468371193,0.15052349904819973,1.3392205646719466,0.8361481521005286,0.2884322375,0.6330657158917273
0.015,1.794375,1.0,1984.0231456229901,0.1552883882311275,1.3385203621849173,0.8442292859043825,0.28841675,0.6345789680682156
0.0155,1.79399375,1.0,2031.3433186869502,0.16002655283210726,1.3378466585418856,0.8517129130777124,0.2884007375,0.6360320003574063
0.016,1.7936,1.0,2076.3067705653957,0.16473814149658095,1.3371976722810803,0.8586545343725339,0.2883842,0.6374289853578481
0.0165,1.7931937500000001,1.0,2118.9755161351104,0.1694233016222804,1.3365717819708238,0.8651036793856104,0.2883671375,0.6387737103985467
0.017,1.792775,1.0,2159.423639153876,0.17408218060693748,1.3359673661794378,0.8711045659971554,0.28834955,0.6400699262195522
0.0175,1.7923437500000001,1.0,2197.736288174302,0.17871492584828402,1.3353828034752446,0.8766967282881302,0.2883314375,0.6413213492764205
0.018000000000000002,1.7919,1.0,2234.00873074761,0.18332168474405186,1.3348164724265663,0.8819155673756044,0.2883128,0.6425316638770101
0.0185,1.79144375,1.0,2268.332196729425,0.18790260363742858,1.3342668839071787,0.8867928677640378,0.2882936375,0.6437042421013544
0.019,1.790975,1.0,2300.7905668781345,0.19245782821312596,1.3337327009837583,0.8913572197475256,0.28827395,0.644842105529609
0.0195,1.79049375,1.0,2331.456590673725,0.19698750185640518,1.3332127640591769,0.8956343883467075,0.2882537375,0.64594787585473
0.02,1.79,1.0,2360.4010839951493,0.20149176713843248,1.3327059896061515,0.8996476093904103,0.288233,0.6470239938781615
0.0205,1.78949375,1.0,2387.7000355376385,0.20597076663037397,1.3322112940973991,0.9034178559600229,0.2882117375,0.6480728828894495
0.021,1.788975,1.0,2413.425662431314,0.21042464160079727,1.3317276762249013,0.906964106719734,0.28818995000000003,0.6490967755944741
0.021500000000000002,1.78844375,1.0,2437.6616045765245,0.21485353509493813,1.3312540647361042,0.9103035335481425,0.2881676375,0.6500980376141865
0.022,1.7879,1.0,2460.474640970619,0.2192575870589127,1.3307895873895386,0.9134517500720384,0.2881448,0.6510785997278662
0.0225,1.78734375,1.0,2481.922654065304,0.22363693550387057,1.3303334872991819,0.9164229605442149,0.28812143749999997,0.6520401376554887
0.023,1.786775,1.0,2502.066257839885,0.2279917184409612,1.3298850075790118,0.9192300864251769,0.28809755,0.6529843168832759
0.0235,1.78619375,1.0,2520.968568837258,0.23232207388133408,1.3294433913430066,0.9218848999845225,0.28807313749999996,0.6539127930498043
0.024,1.7856,1.0,2538.6888894557005,0.23662813865605545,1.3290079392019876,0.9243981522659934,0.2880482,0.6548270916519812
0.0245,1.78499375,1.0,2555.2888218784196,0.2409100500027235,1.3285779489791365,0.9267796663908049,0.2880227375,0.655728735474056
0.025,1.784375,1.0,2570.834708793222,0.24516794562936717,1.3281526912283035,0.9290384261473461,0.28799675,0.6566192960447121
0.025500000000000002,1.78374375,1.0,2585.369837154269,0.2494019583228154,1.327731667658186,0.9311826997960659,0.2879702375,0.6574998533609193
0.026000000000000002,1.7831000000000001,1.0,2598.9387662384747,0.25361222086989715,1.3273143799774816,0.9332200729791987,0.2879432,0.6583714816962909
0.0265,1.78244375,1.0,2611.587221251968,0.2577988660574415,1.3269003298948876,0.9351575142911993,0.2879156375,0.6592352497277222
0.027,1.781775,1.0,2623.3619924424383,0.26196202667227736,1.3264890191191019,0.9370014337515045,0.28788755,0.660092220646195
0.0275,1.7810937500000001,1.0,2634.3107382926523,0.2661018354361856,1.3260799502972287,0.938757735138202,0.2878589375,0.6609434503002451
0.028,1.7804,1.0,2644.4760583850284,0.2702184210080128,1.325672680910389,0.9404318689863614,0.2878298,0.6617898753464286
0.0285,1.77969375,1.0,2653.906795352766,0.27431191933789745,1.3252667178263065,0.9420288630602193,0.2878001375,0.6626325327630802
0.029,1.778975,1.0,2662.635550937501,0.2783824576693462,1.3248617239830587,0.9435533831821183,0.28776995,0.6634721310291932
0.029500000000000002,1.7782437500000001,1.0,2670.6954683504887,0.2824301632458656,1.3244573623187226,0.9450097467550853,0.2877392375,0.6643093751185498
0.03,1.7775,1.0,2678.12018410137,0.2864551633109623,1.3240532957713755,0.9464019532417554,0.287708,0.6651449665169304
0.0305,1.77674375,1.0,2684.943782346062,0.2904575851081429,1.323649187279095,0.9477337116149263,0.2876762375,0.6659796032320833
0.031,1.775975,1.0,2691.200751753761,0.294437555880914,1.323244699779958,0.9490084651135497,0.28764395,0.6668139797964439
0.0315,1.7751937500000001,1.0,2696.921012523328,0.29839519946091203,1.3228395413153726,0.9502294181547359,0.2876111375,0.6676486943982137
0.032,1.7744,1.0,2702.1307917332015,0.3023306391254536,1.3224334564673834,0.9513995559391374,0.2875778,0.6684842670615305
0.0325,1.77359375,1.0,2706.8738866040876,0.3062440121651455,1.3220260318322175,0.9525216433611589,0.2875439375,0.6693215396122312
0.033,1.772775,1.0,2711.17038173964,0.3101354389014953,1.3216170729198788,0.953598278249981,0.28750955,0.6701609005307696
0.0335,1.7719437500000002,1.0,2715.0405453939925,0.31400503965601073,1.3212063852403721,0.954631884110487,0.2874746375,0.6710027362270843
0.034,1.7711000000000001,1.0,2718.5048121640393,0.31785293475019943,1.3207937743037017,0.9556247238970105,0.2874392,0.6718474310203626
0.0345,1.7702437500000001,1.0,2721.583766521202,0.32167924450556906,1.3203790456198716,0.9565789125438845,0.2874032375,0.672695367116391
0.035,1.7693750000000001,1.0,2724.298127180881,0.3254840892436273,1.3199620046988867,0.9574964283780828,0.28736675,0.6735469245824924
0.035500000000000004,1.76849375,1.0,2726.668732311551,0.3292675892858818,1.3195424570507508,0.9583791235253588,0.2873297375,0.6744024813200544
0.036000000000000004,1.7676,1.0,2728.716525581685,0.33302986495384024,1.3191202081854685,0.9592287334091323,0.2872922,0.6752624130346405
0.0365,1.76669375,1.0,2730.4625430461815,0.3367710365690102,1.3186950636130441,0.9600468854305894,0.2872541375,0.6761270932036919
0.037,1.765775,1.0,2731.927900870524,0.34049122445289953,1.318266828843482,0.9608351069089953,0.28721555,0.6769968930418168
0.0375,1.76484375,1.0,2733.1196855248913,0.34419053849628306,1.3178354374505863,0.9615948426570491,0.2871764375,0.6778719218768956
0.038,1.7639,1.0,2734.067237395719,0.34786910827341455,1.3174006213358578,0.9623274353978177,0.28713679999999997,0.6787526963508017
0.0385,1.76294375,1.0,2734.7850570368287,0.35152704951069835,1.3169622476677223,0.9630341581142957,0.28709663750000003,0.6796394564841374
0.039,1.761975,1.0,2735.284295247139,0.3551644751163306,1.3165202143748473,0.9637162113897657,0.28705595,0.680532378482464
0.0395,1.7609937500000001,1.0,2735.576134073612,0.3587814979985073,1.3160744193859,0.9643747261576864,0.2870147375,0.6814316371488082
0.04,1.76,1.0,2735.6717824329403,0.3623782310654245,1.3156247606295477,0.9650107684836287,0.286973,0.6823374058595049
0.0405,1.7589937500000001,1.0,2735.582471965108,0.36595478722527836,1.3151711360344573,0.9656253439700142,0.2869307375,0.6832498565393801
0.041,1.757975,1.0,2735.319453116909,0.36951127938626493,1.3147134435292964,0.9662194018170744,0.28688795,0.6841691596362639
0.0415,1.75694375,1.0,2734.8939914573293,0.3730478204565803,1.3142515810427322,0.9667938385701773,0.2868446375,0.6850954840948441
0.042,1.7559,1.0,2734.3173642235506,0.3765645233444206,1.313785446503432,0.9673495015807453,0.28680079999999997,0.6860289973298528
0.0425,1.75484375,1.0,2733.6008570981617,0.38006150095798175,1.3133149378400628,0.9678871922053802,0.2867564375,0.6869698651985892
0.043000000000000003,1.753775,1.0,2732.7495483261314,0.3835388590423278,1.312840009420501,0.9684076722185672,0.28671155,0.6879181393679235
0.043500000000000004,1.75269375,1.0,2731.7767062236353,0.3869967143477951,1.312360541263557,0.9689116586819013,0.28666613750000003,0.6888740186911277
0.044,1.7516,1.0,2730.6937128861264,0.3904351795474155,1.3118764305233528,0.9693998316715224,0.2866202,0.6898376660842229
0.0445,1.75049375,1.0,2729.506623924509,0.39385436063035695,1.3113876227532155,0.9698728386511662,0.2865737375,0.6908091466712409
0.045,1.7493750000000001,1.0,2728.2214959547728,0.3972543635857872,1.3108940635064725,0.9703312937548585,0.28652675,0.691788524478423
0.0455,1.74824375,1.0,2726.84438548634,0.40063529440287393,1.3103956983364513,0.9707757798235086,0.2864792375,0.6927758624178149
0.046,1.7471,1.0,2725.3813478762954,0.40399725907078504,1.3098924727964794,0.9712068502980243,0.2864312,0.6937712222706738
0.0465,1.7459437500000001,1.0,2723.8384363489263,0.4073403635786882,1.3093843324398842,0.9716250309803424,0.28638263750000004,0.6947746646706863
0.047,1.744775,1.0,2722.2217010812105,0.4106647139157512,1.308871222819993,0.9720308216727584,0.28633355,0.6957862490869969
0.0475,1.74359375,1.0,2720.5371883544585,0.41397041607114193,1.3083530894901334,0.9724246977050482,0.28628393750000003,0.6968060338070465
0.048,1.7424,1.0,2718.790939770471,0.417257576034028,1.3078298780036328,0.9728071113580359,0.2862338,0.6978340759192236
0.0485,1.74119375,1.0,2716.986504573739,0.4205262930597496,1.3073015565713497,0.9731784939372922,0.2861831375,0.6988703868903876
0.049,1.739975,1.0,2715.1285865386403,0.4237766713280019,1.306768082858002,0.9735392561262776,0.28613195,0.6999149978942157
0.0495,1.73874375,1.0,2713.226196330255,0.4270088268563857,1.3062293752207172,0.9738897879955408,0.2860802375,0.7009680157905904
0.05,1.7375,1.0,2711.282203531706,0.4302228584594018,1.3056854079211704,0.974230463120522,0.286028,0.7020294368114403
0.0505,1.73624375,1.0,2709.299474713674,0.43341886495155096,1.305136155221035,0.9745616378214981,0.2859752375,0.7030992563039683
0.051000000000000004,1.734975,1.0,2707.2808732220824,0.43659694514733416,1.3045815913819854,0.9748836521115015,0.28592195,0.7041774687219939
0.051500000000000004,1.73369375,1.0,2705.2292589796784,0.4397571978612521,1.3040216906656963,0.9751968305840432,0.2858681375,0.7052640676172567
0.052000000000000005,1.7324,1.0,2703.147488303228,0.44289972190780574,1.3034564273338414,0.9755014832449594,0.2858138,0.7063590456306794
0.0525,1.73109375,1.0,2701.038413734669,0.4460246161014958,1.302885775648095,0.9757979062923604,0.28575893750000003,0.7074623944835838
0.053,1.729775,1.0,2698.9048838872855,0.44913197925682324,1.3023097098701313,0.9760863828483349,0.28570355000000003,0.7085741049688682
0.0535,1.72844375,1.0,2696.749743306471,0.45222191018828883,1.3017282042616247,0.9763671836457893,0.2856476375,0.7096941669421406
0.054,1.7271,1.0,2694.5758323453056,0.4552945077103934,1.3011412330842493,0.9766405676735287,0.2855912,0.710822569312812
0.0545,1.7257437500000001,1.0,2692.3859870546657,0.4583498706376378,1.3005487705996794,0.9769067827824531,0.2855342375,0.7119593000351443
0.055,1.724375,1.0,2690.183026780785,0.4613880959200695,1.2999507911822719,0.9771660660826658,0.28547675,0.7131043458837026
0.0555,1.72299375,1.0,2687.9704905633453,0.4644092551256904,1.2993472625734712,0.977418641869063,0.2854187375,0.7142577053245194
0.056,1.7216,1.0,2685.7510941511046,0.46741348386344445,1.2987381600064187,0.9776647314985873,0.2853602,0.715419361466771
0.0565,1.72019375,1.0,2683.5259091685807,0.47040087284652926,1.2981234737456449,0.9779045437994269,0.28530113749999997,0.7165892678629777
0.057,1.718775,1.0,2681.2960055074363,0.4733715127881427,1.2975031940556814,0.9781382790097363,0.28524155,0.7177673773171798
0.0575,1.71734375,1.0,2679.0624513141292,0.4763254944014824,1.2968773112010588,0.9783661291982662,0.2851814375,0.7189536418814724
0.058,1.7159,1.0,2676.826312979961,0.47926290839974617,1.2962458154463081,0.9785882786611241,0.2851208,0.7201480128525253
0.0585,1.71444375,1.0,2674.5886551331587,0.4821838454961316,1.2956086970559604,0.9788049042962005,0.2850596375,0.7213504407681042
0.059000000000000004,1.7129750000000001,1.0,2672.3505406326044,0.4850883964038365,1.2949659462945469,0.9790161759566823,0.28499795,0.7225608754035795
0.059500000000000004,1.71149375,1.0,2670.113030564449,0.4879766518360586,1.2943175534265985,0.9792222567849793,0.2849357375,0.7237792657684354
0.06,1.71,1.0,2667.877184240171,0.49084870250599555,1.293663508716646,0.9794233035282891,0.284873,0.7250055601027692
0.0605,1.7084937500000001,1.0,2665.644059196873,0.4937046391268452,1.2930038024292207,0.9796194668369499,0.2848097375,0.7262397058737824
0.061,1.7069750000000001,1.0,2663.4147112001624,0.4965445524118052,1.2923384248288534,0.9798108915466396,0.28474595,0.727481649772273
0.0615,1.7054437500000001,1.0,2661.190194248097,0.49936853307407325,1.2916673661800753,0.979997716945416,0.2846816375,0.7287313377091131
0.062,1.7039,1.0,2658.9715605787255,0.5021766718268471,1.2909906167474172,0.9801800770265183,0.2846168,0.7299887148117274
0.0625,1.70234375,1.0,2656.7598606781035,0.5049690593833245,1.2903081667954102,0.9803581007277934,0.2845514375,0.7312537254205622
0.063,1.7007750000000001,1.0,2654.556143291518,0.5077457864567031,1.2896200065885854,0.9805319121585466,0.28448555,0.7325263130855476
0.0635,1.69919375,1.0,2652.359028093863,0.5105069424858191,1.2889261487736472,0.9807016318645995,0.28441913750000003,0.7338063793202433
0.064,1.6976,1.0,2650.1705480884048,0.5132526116400858,1.288226574531641,0.9808673739714135,0.2843522,0.7350938830795803
0.0645,1.69599375,1.0,2647.992531573856,0.515982879811509,1.2875212669018992,0.981029248646884,0.2842847375,0.7363887789512975
0.065,1.694375,1.0,2645.8242096384997,0.5186978331019629,1.2868102328743212,0.9811873632661294,0.28421675,0.7376909767811788
0.0655,1.69274375,1.0,2643.6650265100843,0.52139755751898,1.2860934774821382,0.9813418212326637,0.2841482375,0.7390003894839837
0.066,1.6911,1.0,2641.5182992912332,0.5240821387430102,1.2853709699827411,0.9814927204692698,0.2840792,0.7403169945507317
0.0665,1.6894437500000001,1.0,2639.3833304415225,0.5267516618652524,1.2846427166934447,0.9816401571791595,0.2840096375,0.7416407009992838
0.067,1.687775,1.0,2637.257825089595,0.5294062108935996,1.2839087387132972,0.9817842248168531,0.28393955,0.7429713905683186
0.0675,1.686093806425318,1.0,2635.1422466686904,0.5320458698359457,1.283169057141348,0.9819250135703482,0.28386893986986333,0.74430894476301
0.068,1.6844074941260159,1.0,2633.3865658044106,0.5346707223020332,1.282423741133261,0.9820626127675071,0.28379811475329264,0.745653158304505
0.0685,1.682721181826714,1.0,2632.1952461125597,0.5372808518128032,1.2816732064741807,0.9821971251161544,0.283727289636722,0.7470032039367143
0.069,1.681034869527412,1.0,2631.5249205453115,0.5398763404990334,1.2809178510806447,0.9823286490126916,0.2836564645201513,0.7483582938272727
0.0695,1.67934855722811,1.0,2631.3337845421356,0.542457270325562,1.2801580601199978,0.9824572790391115,0.2835856394035806,0.7497176701205348
0.07,1.6776622449288079,1.0,2631.5824113325007,0.545023722821718,1.279394198088483,0.9825831057356328,0.2835148142870099,0.7510806188599919
0.07050000000000001,1.6759759326295058,1.0,2632.230515261233,0.5475757799682812,1.278626638447356,0.9827062171876791,0.2834439891704392,0.7524464169245102
0.07100000000000001,1.674289620330204,1.0,2633.2446496656007,0.5501135225917171,1.2778556920852444,0.9828266957506158,0.2833731640538686,0.7538144591066003
0.07150000000000001,1.672603308030902,1.0,2634.597426359989,0.5526370303149494,1.2770816143499975,0.9829446185784833,0.2833023389372979,0.755184244225763
0.07200000000000001,1.6709169957316,1.0,2636.2614977235858,0.5551463827609022,1.2763046605894643,0.9830600604039603,0.2832315138207272,0.7565552759456025
0.0725,1.6692306834322979,1.0,2638.20953969458,0.5576416595524993,1.275525086151494,0.9831730936371061,0.2831606887041565,0.7579270628227418
0.073,1.6675443711329958,1.0,2640.4239425721344,0.5601229369661317,1.2747430566808469,0.9832837842448323,0.2830898635875858,0.7592992755282684
0.0735,1.665858058833694,1.0,2642.8683688148485,0.5625902986903114,1.2739589109282505,0.9833922042970885,0.28301903847101517,0.760671285468772
0.074,1.664171746534392,1.0,2645.5233648294525,0.5650438227249007,1.2731728314390067,0.9834984164688602,0.2829482133544445,0.7620427428686097
0.0745,1.6624854342350899,1.0,2648.3747270284503,0.56748358520198,1.2723849521907968,0.9836024792969025,0.2828773882378738,0.7634133859056675
