Time [s],Phi [rad],STIM [ ],Fsee [N],Gamma [ ],Lcerel [ ],q [ ],Lmtc [m],fisomrel [ ]
0.0,1.8,1.0,17.967180214681953,1.0108440446006695e-05,1.379339743749709,0.005000027230614782,0.288653,0.5411395370277587
0.0005,1.79999375,1.0,18.276546617195134,0.005619261048883673,1.3793024097311761,0.012940815526266958,0.2886527375,0.5412298532274331
0.001,1.799975,1.0,21.618245402226748,0.011196950746109767,1.378938316020008,0.035609143243045774,0.28865195,0.5421101806502571
0.0015,1.79994375,1.0,31.069179637371533,0.016743354015040398,1.378046208531244,0.07060248136325145,0.2886506375,0.5442635976248446
0.002,1.7999,1.0,53.582405858310835,0.022258646346940917,1.3763681305179922,0.11471875608734507,0.2886488,0.5483004793698711
0.0025,1.79984375,1.0,97.11901984454205,0.027743002248989,1.3739351632986339,0.16457567408084028,0.28864643749999996,0.5541214720944645
0.003,1.7997750000000001,1.0,160.95844485803678,0.033196595251992214,1.3712143333490803,0.2172812589100064,0.28864354999999997,0.56058647549808
0.0035,1.79969375,1.0,237.68373839370736,0.03861959790997906,1.3685847217010807,0.27061368808373615,0.2886401375,0.5667898690323243
0.004,1.7996,1.0,321.46728295088786,0.04401218181098136,1.3661560788455238,0.3229165752390893,0.2886362,0.5724799933816025
0.0045000000000000005,1.7994937500000001,1.0,409.26835831953935,0.049374517582218655,1.3639227999055326,0.3730352417059559,0.2886317375,0.5776791955003754
0.005,1.799375,1.0,499.41417666439213,0.05470677488118867,1.3618583280563206,0.42024814781272934,0.28862675,0.582457112296825
0.0055,1.79924375,1.0,590.7911426594285,0.060009122443130614,1.3599388208630698,0.4641743348305941,0.2886212375,0.5868751442465017
0.006,1.7991000000000001,1.0,682.5188727019721,0.0652817280241861,1.3581464008531186,0.5046805477891304,0.2886152,0.5909794501146599
0.006500000000000001,1.79894375,1.0,773.882385971895,0.07052475845663995,1.3564672343596906,0.5418012930873551,0.2886086375,0.5948058380993412
0.007,1.798775,1.0,864.2867145464096,0.07573837963403685,1.3548903804044927,0.5756772700080046,0.28860155,0.5983827101286814
0.0075,1.79859375,1.0,953.2433316400377,0.08092275651891781,1.3534067774034166,0.6065103693748081,0.2885939375,0.6017335768027167
0.008,1.7984,1.0,1040.3579497992343,0.0860780531270755,1.3520086537766485,0.6345324776529414,0.2885858,0.6048785320993355
0.0085,1.79819375,1.0,1125.3198774115679,0.09120443266070216,1.3506891615168168,0.659984769041188,0.2885771375,0.607835178554311
0.009000000000000001,1.797975,1.0,1207.8796443899973,0.09630205701503557,1.3494423156544126,0.683104695317568,0.28856795,0.6106188393816385
0.0095,1.79774375,1.0,1287.8741226299421,0.10137108802906565,1.3482623630919068,0.7041179219167428,0.2885582375,0.6132440256812528
0.01,1.7975,1.0,1365.167111459441,0.10641168592877548,1.3471443844798991,0.7232345160611103,0.288548,0.6157231387884947
0.0105,1.79724375,1.0,1439.6598767524736,0.11142400973064061,1.346083941661995,0.7406469214980589,0.2885372375,0.6180673001393395
0.011,1.796975,1.0,1511.3077831783262,0.11640821805863438,1.3450767299244588,0.7565294518964066,0.28852595000000003,0.6202871507163333
0.0115,1.79669375,1.0,1580.1113307208411,0.12136446947449236,1.3441185987221944,0.7710388824774962,0.2885141375,0.6223928252980655
0.012,1.7964,1.0,1646.0656520624564,0.1262929204436764,1.343206063812906,0.7843157484870807,0.28850180000000003,0.6243928500065419
0.0125,1.79609375,1.0,1709.1785950588596,0.1311937262913126,1.3423359817210514,0.7964854905819386,0.2884889375,0.626294883989426
0.013000000000000001,1.7957750000000001,1.0,1769.4937557293918,0.13606704227603247,1.341505217239048,0.8076597218052717,0.28847555,0.6281064623676997
0.0135,1.79544375,1.0,1827.0739934784021,0.14091302272986944,1.340710789888382,0.8179376986288898,0.2884616375,0.629834686395519
0.014,1.7951000000000001,1.0,1881.9873860944733,0.14573182188979858,1.3399499832657369,0.8274076981431139,0.2884472,0.631485997696509
0.0145,1.79474375,1.0,1934.2869576020419,0.15052359115396685,1.3392205170462779,0.8361483019074184,0.2884322375,0.6330658189249232
0.015,1.794375,1.0,1984.0467148187179,0.1552884819205212,1.3385201109051714,0.8442293575021869,0.28841675,0.6345795105636175
0.0155,1.79399375,1.0,2031.34895876309,0.16002664473156755,1.3378465991153548,0.8517130378250555,0.2884007375,0.6360321283998367
0.016,1.7936,1.0,2076.290144645969,0.1647382309204333,1.337197845552989,0.8586547204878793,0.2883842,0.637428612737317
0.0165,1.7931937500000001,1.0,2118.955230230553,0.1694233899764499,1.3365719912470166,0.8651038644099814,0.2883671375,0.6387732611862824
0.017,1.792775,1.0,2159.4111025718025,0.17408226876307725,1.3359674942939215,0.8711047168276732,0.28834955,0.6400696517151271
0.0175,1.7923437500000001,1.0,2197.735368613332,0.17871501414377533,1.335382812790187,0.8766968372424707,0.2883314375,0.6413213293524949
0.018000000000000002,1.7919,1.0,2234.015458426597,0.18332177298200397,1.3348164048322972,0.8819156487277823,0.2883128,0.6425318082116558
0.0185,1.79144375,1.0,2268.337907203904,0.18790269102842083,1.3342668269686853,0.8867929457401008,0.2882936375,0.6437043634830582
0.019,1.790975,1.0,2300.7955981049995,0.19245791482142707,1.3337326511730752,0.8913572938647848,0.28827395,0.644842211546526
0.0195,1.79049375,1.0,2331.4656064379787,0.19698758839532673,1.3332126753893543,0.8956344483697246,0.2882537375,0.6459480642852959
0.02,1.79,1.0,2360.4146779420125,0.2014918537850759,1.3327058567323322,0.8996476552208877,0.288233,0.647024275816342
0.0205,1.78949375,1.0,2387.714624349316,0.20597085302563062,1.3322111523168187,0.9034178963686488,0.2882117375,0.6480731832791182
0.021,1.788975,1.0,2413.441900689473,0.21042472815194693,1.331727519257624,0.9069641410573187,0.28818995000000003,0.6490971076759655
0.021500000000000002,1.78844375,1.0,2437.668318794803,0.21485361964417762,1.3312540001564335,0.9103035836797118,0.2881676375,0.6500981740445204
0.022,1.7879,1.0,2460.47329433127,0.21925766985120443,1.3307896002818056,0.913451812190089,0.2881448,0.651078572529985
0.0225,1.78734375,1.0,2481.922404814215,0.22363701826925086,1.3303334896750938,0.9164230174642914,0.28812143749999997,0.6520401326501106
0.023,1.786775,1.0,2502.070913226761,0.22799180191307192,1.3298849633819343,0.9192301319278009,0.28809755,0.6529844098676654
0.0235,1.78619375,1.0,2520.9764874617586,0.23232215779742255,1.3294433164479642,0.921884937600173,0.28807313749999996,0.6539129504074188
0.024,1.7856,1.0,2538.6989990559464,0.23662822293705774,1.3290078439188198,0.9243981843198024,0.2880482,0.6548272915812805
0.0245,1.78499375,1.0,2555.3003329419907,0.24091013434673247,1.3285778408401379,0.9267796943953129,0.2880227375,0.655728962081738
0.025,1.784375,1.0,2570.833333620465,0.24516802570189572,1.328152704108059,0.9290384712586516,0.28799675,0.6566192690898237
0.025500000000000002,1.78374375,1.0,2585.362448757557,0.24940203653357607,1.3277317366625498,0.9311827514533603,0.2879702375,0.6574997091331285
0.026000000000000002,1.7831000000000001,1.0,2598.931998626733,0.2536122994565969,1.3273144430187687,0.9332201217799408,0.2879432,0.6583713500998509
0.0265,1.78244375,1.0,2611.5844343336285,0.25779894602935377,1.3269003557924843,0.9351575558868035,0.2879156375,0.6592351957358009
0.027,1.781775,1.0,2623.363234897031,0.26196210781024215,1.3264890075994662,0.9370014683701835,0.28788755,0.6600922446323843
0.0275,1.7810937500000001,1.0,2634.312817944663,0.2661019163576575,1.3260799310554832,0.9387577670399174,0.2878589375,0.6609434903152148
0.028,1.7804,1.0,2644.4784552529627,0.27021850322999535,1.3256726587763044,0.9404318996638452,0.2878298,0.661789921318791
0.0285,1.77969375,1.0,2653.9011280922305,0.2743119981440729,1.3252667700680851,0.942028901827038,0.2878001375,0.66263242439246
0.029,1.778975,1.0,2662.617974041606,0.278382530543394,1.324861885744278,0.9435534336716913,0.28776995,0.6634717958886214
0.029500000000000002,1.7782437500000001,1.0,2670.6801029900603,0.2824302350137027,1.3244575035134796,0.945009792410997,0.2877392375,0.6643090829521696
0.03,1.7775,1.0,2678.115558883088,0.2864552369971457,1.3240533382142479,0.9464019849094703,0.287708,0.6651448788016654
0.0305,1.77674375,1.0,2684.9527945050077,0.29045766193587014,1.323649104685141,0.9477337269090135,0.2876762375,0.6659797737133502
0.031,1.775975,1.0,2691.220635317548,0.29443763527202294,1.323244517764717,0.9490084678430468,0.28764395,0.6668143550224986
0.0315,1.7751937500000001,1.0,2696.9482451012877,0.29839528244775093,1.3228392922915337,0.9502294132444156,0.2876111375,0.6676492071195843
0.032,1.7744,1.0,2702.165093399985,0.30233072890520113,1.3224331431041494,0.9513995450064092,0.2875778,0.66848491144126
0.0325,1.77359375,1.0,2706.9009247684144,0.3062441000865204,1.322025785041122,0.9525216397257178,0.2875439375,0.6693220464561517
0.033,1.772775,1.0,2711.183504109752,0.3101355200450427,1.3216169532401134,0.9535982873091193,0.28750955,0.6701611460093964
0.0335,1.7719437500000002,1.0,2715.0367533774133,0.31400511067747533,1.3212064198000428,0.9546319075776755,0.2874746375,0.6710026654312458
0.034,1.7711000000000001,1.0,2718.493766717521,0.31785300042859727,1.3207938749055694,0.9556247526317263,0.2874392,0.6718472252011157
0.0345,1.7702437500000001,1.0,2721.5727740433053,0.32167930851285653,1.320379145682652,0.9565789399996703,0.2874032375,0.6726951626647133
0.035,1.7693750000000001,1.0,2724.292130636918,0.32548415414470117,1.3199620592572485,0.9574964504160028,0.28736675,0.6735468132521077
0.035500000000000004,1.76849375,1.0,2726.6703042161425,0.32926765653857915,1.319542442755318,0.9583791382425525,0.2873297375,0.6744025104526925
0.036000000000000004,1.7676,1.0,2728.725862662861,0.3330299349089385,1.3191201233028185,0.9592287409812185,0.2872922,0.6752625857882459
0.0365,1.76669375,1.0,2730.4774624151382,0.3367711084702272,1.3186949280257085,0.9600468879667922,0.2872541375,0.6761273687840831
0.037,1.765775,1.0,2731.9438375208647,0.34049129643689324,1.3182666840499468,0.9608351083189534,0.28721555,0.6769971869383014
0.0375,1.76484375,1.0,2733.1423100056018,0.34419061604365736,1.3178352319392541,0.9615948391161873,0.2871764375,0.6778723384506395
0.038,1.7639,1.0,2734.086336622681,0.34786917864473743,1.3174004478764678,0.9623274333348693,0.28713679999999997,0.6787530474739083
0.0385,1.76294375,1.0,2734.802205198146,0.351527115688968,1.3169620919483451,0.9630341567633908,0.28709663750000003,0.6796397712618903
0.039,1.761975,1.0,2735.3007050699157,0.3551645395004449,1.3165200653737792,0.9637162101956294,0.28705595,0.6805326792594979
0.0395,1.7609937500000001,1.0,2735.5926563604758,0.3587815624032641,1.316074269371663,0.9643747247669477,0.2870147375,0.6814319395445454
0.04,1.76,1.0,2735.6889057598246,0.36237829672152144,1.3156246051608895,0.9650107667364517,0.286973,0.6823377188043132
0.0405,1.7589937500000001,1.0,2735.6003225261097,0.36595485477931283,1.315170973960352,0.9656253418920612,0.2869307375,0.6832501823114894
0.041,1.757975,1.0,2735.3377947017225,0.3695113489007341,1.3147132769889434,0.9662193996118119,0.28688795,0.6841694938994918
0.0415,1.75694375,1.0,2734.9122255460925,0.37304789140988126,1.314251415465557,0.9667938366115216,0.2868446375,0.6850958159371618
0.042,1.7559,1.0,2734.3345301849267,0.3765645946308501,1.3137852906090852,0.9673495004060504,0.28680079999999997,0.6860293093028442
0.0425,1.75484375,1.0,2733.615632475695,0.38006157088773657,1.3133148036384217,0.9678871925087625,0.2867564375,0.6869701333578357
0.043000000000000003,1.753775,1.0,2732.7664620890578,0.3835389325046365,1.3128398557724594,0.968407671391465,0.28671155,0.687918445919218
0.043500000000000004,1.75269375,1.0,2731.790713080255,0.3869967788172916,1.3123604139997516,0.9689116584806658,0.28666613750000003,0.6888742722127035
0.044,1.7516,1.0,2730.700884949837,0.39043522887037685,1.3118763653462973,0.9693998339914844,0.2866202,0.6898377957218843
0.0445,1.75049375,1.0,2729.5107225096535,0.39385440315770287,1.3113875854986843,0.9698728420382033,0.2865737375,0.6908092206546543
0.045,1.7493750000000001,1.0,2728.2254369018306,0.39725440593437394,1.3108940276763736,0.9703312971213929,0.28652675,0.6917885955202878
0.0455,1.74824375,1.0,2726.850239607532,0.4006353414554946,1.310395645098826,0.970775782437649,0.2864792375,0.692775967805114
0.046,1.7471,1.0,2725.3903415722366,0.40399731397616945,1.309892390985502,0.9712068517729665,0.2864312,0.6937713839581912
0.0465,1.7459437500000001,1.0,2723.8509523786847,0.4073404277515028,1.3093842185558628,0.9716250312640571,0.28638263750000004,0.6947748893768435
0.047,1.744775,1.0,2722.2372794687362,0.41066478703659925,1.3088710810293689,0.9720308210379924,0.28633355,0.6957865283920569
0.0475,1.74359375,1.0,2720.554527414244,0.4139704960865632,1.3083529316254812,0.9724246967396507,0.28628393750000003,0.6968063442537351
0.048,1.7424,1.0,2718.807897235136,0.41725765915649926,1.3078297235636605,0.9728071109556279,0.2862338,0.6978343791158176
0.0485,1.74119375,1.0,2717.0025857677506,0.4205263805015118,1.3073014100633675,0.9731784945425284,0.2861831375,0.6988706740212565
0.049,1.739975,1.0,2715.1437850799957,0.42377676437670536,1.3067679443440632,0.9735392578668817,0.28613195,0.6999152688868551
0.0495,1.73874375,1.0,2713.236681936202,0.4270089150371844,1.3062292796252082,0.9738897919633248,0.2860802375,0.7009682024879658
0.05,1.7375,1.0,2711.2864573101733,0.4302229367380535,1.3056853691262633,0.9742304696171294,0.286028,0.7020295124430489
0.0505,1.73624375,1.0,2709.29710177274,0.4334189295485014,1.3051361768704366,0.9745616466155403,0.2859752375,0.703099214173768
0.051000000000000004,1.734975,1.0,2707.268836438478,0.43659698175382117,1.3045817012399772,0.974883663392181,0.28592195,0.7041772553244939
0.051500000000000004,1.73369375,1.0,2705.2124144683607,0.4397572205575957,1.3040218444614808,0.9751968430195823,0.2858681375,0.7052637694204055
0.052000000000000005,1.7324,1.0,2703.1298402937696,0.44289974192930814,1.303456588527868,0.9755014957033649,0.2858138,0.7063587336703707
0.0525,1.73109375,1.0,2701.0231157317544,0.4460246418384419,1.302885915432059,0.9757979178421887,0.28575893750000003,0.7074621244671035
0.053,1.729775,1.0,2698.894239890569,0.4491320162544803,1.3023098071669743,0.9760863927590102,0.28570355000000003,0.7085739173809529
0.0535,1.72844375,1.0,2696.7452090820134,0.4522219611469066,1.3017282457255344,0.976367191387536,0.2856476375,0.7096940871536721
0.054,1.7271,1.0,2694.578016741579,0.45529457248520405,1.3011412131006594,0.9766405729169804,0.2855912,0.7108226076921659
0.0545,1.7257437500000001,1.0,2692.394653354813,0.45834994623885605,1.3005486912852702,0.9769067853979815,0.2855342375,0.7119594520622174
0.055,1.724375,1.0,2690.1971063919996,0.4613881783773458,1.299950662272287,0.9771660663123354,0.28547675,0.7131045924821953
0.0555,1.72299375,1.0,2687.987360249132,0.46440936487015666,1.2993471080546302,0.977418643108982,0.2854187375,0.7142580003167398
0.056,1.7216,1.0,2685.767396196619,0.46741360168677193,1.29873801062522,0.9776647337085085,0.2853602,0.7154196460704272
0.0565,1.72019375,1.0,2683.539192334857,0.47040098479667486,1.2981233519769773,0.977904546978266,0.28530113749999997,0.7165894993814137
0.057,1.718775,1.0,2681.304723557449,0.4733716101693488,1.297503114102822,0.978138283180031,0.28524155,0.7177675290150616
0.0575,1.71734375,1.0,2679.065961520599,0.4763255737742771,1.2968772789956748,0.9783661343920113,0.2851814375,0.718953702857539
0.058,1.7159,1.0,2676.824750739806,0.479262963922922,1.2962458297855153,0.978588284304008,0.2851208,0.7201479857611337
0.0585,1.71444375,1.0,2674.5830559737255,0.482183856148152,1.295608748470025,0.978804908077501,0.2850596375,0.7213503438392396
0.059000000000000004,1.7129750000000001,1.0,2672.342815949038,0.4850883816634179,1.2949660172558652,0.979016178635222,0.28499795,0.7225607419139433
0.059500000000000004,1.71149375,1.0,2670.1047155304846,0.4879766279017518,1.2943176298430596,0.9792222589818672,0.2849357375,0.7237791223327925
0.06,1.71,1.0,2667.8694384340774,0.490848682296186,1.2936635799316323,0.9794233057399939,0.284873,0.7250054267274804
0.0605,1.7084937500000001,1.0,2665.6376672298265,0.4937046322797527,1.293003861221607,0.9796194694473956,0.2848097375,0.7262395960115728
0.061,1.7069750000000001,1.0,2663.410083343954,0.4965445652854842,1.2923384674130078,0.9798108948384076,0.28474595,0.7274815703782327
0.0615,1.7054437500000001,1.0,2661.187367062826,0.4993685687464126,1.2916673922058584,0.979997721110116,0.2846816375,0.7287312892979401
0.062,1.7039,1.0,2658.9701975380362,0.5021767300955702,1.2909906293001827,0.9801800821743976,0.2846168,0.7299886915162106
0.0625,1.70234375,1.0,2656.759252791121,0.5049691367659891,1.2903081723960044,0.9803581068966396,0.2845514375,0.7312537150513132
0.063,1.7007750000000001,1.0,2654.5552097204004,0.5077458761907017,1.2896200151933477,0.9805319193219373,0.28448555,0.7325262971919804
0.0635,1.69919375,1.0,2652.3587441084314,0.51050703580274,1.288926151392236,0.9807016388895201,0.28441913750000003,0.7338063744951233
0.064,1.6976,1.0,2650.1705306294702,0.5132527030351365,1.2882265746926937,0.9808673806360931,0.2843522,0.7350938827835365
0.0645,1.69599375,1.0,2647.9912428593043,0.5159829653209231,1.2875212787947445,0.98102925538875,0.2842847375,0.7363887571436059
0.065,1.694375,1.0,2645.8215532846334,0.5186979100931323,1.2868102573984121,0.9811873699480588,0.28421675,0.737690931923012
0.0655,1.69274375,1.0,2643.6621333139174,0.5213976247847961,1.2860935042037203,0.9813418272618947,0.2841482375,0.7390003407284308
0.066,1.6911,1.0,2641.513653289006,0.5240821968289469,1.2853710129106932,0.9814927265905437,0.2840792,0.7403169164232302
0.0665,1.6894437500000001,1.0,2639.3767824981637,0.5267517136586167,1.2846427772193547,0.9816401636635776,0.2840096375,0.7416405911251684
0.067,1.687775,1.0,2637.248016317934,0.5294062245361104,1.2839088294172287,0.9817842301304809,0.28393955,0.7429712263359022
0.0675,1.68609375,1.0,2635.128427306545,0.5320458348182523,1.2831691595010517,0.9819250161687102,0.2838689375,0.7443087599090177
0.068,1.6844000000000001,1.0,2633.0217697256344,0.5346706626249667,1.2824237326335561,0.9820626084449394,0.2837978,0.7456531736139337
0.0685,1.68269375,1.0,2630.9279350990096,0.5372807859686258,1.281672549684861,0.9821970896820765,0.2837261375,0.7470043837819818
0.069,1.680975,1.0,2628.846815182302,0.5398762828616022,1.2809156115250857,0.9823285397703732,0.28365395,0.7483623061271911
0.0695,1.67924375,1.0,2626.7783019608723,0.5424572313162679,1.2801529190243488,0.982457035882359,0.28358123749999997,0.7497268557466092
0.07,1.6775,1.0,2624.7222876475957,0.5450237093449953,1.2793844730527697,0.982582652582345,0.283508,0.7510979471206193
0.07050000000000001,1.67574375,1.0,2622.678664680895,0.5475757949601567,1.2786102744804673,0.982705461930787,0.2834342375,0.7524754941132611
0.07100000000000001,1.673975,1.0,2620.6473257225625,0.5501135661741244,1.2778303241775604,0.9828255335837875,0.28335995,0.7538594099725502
0.07150000000000001,1.67219375,1.0,2618.6281636557273,0.5526371009992708,1.277044623014168,0.9829429348879867,0.2832851375,0.7552496073307956
0.07200000000000001,1.6704,1.0,2616.621071582807,0.555146477447968,1.2762531718604095,0.9830577309710905,0.2832098,0.7566459982049204
0.0725,1.66859375,1.0,2614.6259428234794,0.5576417735325884,1.2754559715864038,0.9831699848282606,0.2831339375,0.7580484939967803
0.073,1.6667750000000001,1.0,2612.6426709127963,0.5601230672655044,1.2746530230622695,0.9832797574045828,0.28305755,0.7594570054934837
0.0735,1.66494375,1.0,2610.6711495988297,0.5625904366590881,1.273844327158126,0.9833871076738144,0.2829806375,0.7608714428677082
0.074,1.6631,1.0,2608.71127284105,0.5650439597257121,1.273029884744092,0.9834920927136033,0.2829032,0.7622917156780226
0.0745,1.6612437500000001,1.0,2606.762934808133,0.5674837144777484,1.2722096966902867,0.9835947677773548,0.2828252375,0.7637177328692032
0.075,1.659375,1.0,2604.8260298762743,0.5699097789275694,1.2713837638668293,0.9836951863629219,0.28274675,0.7651494027725544
0.0755,1.65749375,1.0,2602.900452627029,0.5723222310875475,1.2705520871438385,0.9837934002782722,0.2826677375,0.7665866331062272
