Time [s],Phi [rad],STIM [ ],Fsee [N],Gamma [ ],Lcerel [ ],q [ ],Lmtc [m],fisomrel [ ]
0.0,1.8,1.0,20.609312788705346,0.00166165137282088,1.3790538855085819,0.005705763670359988,0.288653,0.5418308414567823
0.0005,1.79999375,1.0,21.36817726567972,0.007261540131335759,1.378972398912841,0.018152904158455777,0.2886527375,0.5420278088719594
0.001,1.799975,1.0,25.95469371935652,0.012830017941583947,1.3785156386080817,0.044723596193181565,0.28865195,0.5431310947994774
0.0015,1.79994375,1.0,38.34204186086932,0.018367260994715022,1.3774591365403976,0.08274070316368867,0.2886506375,0.545677934445719
0.002,1.7999,1.0,66.47012456199828,0.02387344449201823,1.37557704925869,0.12887834740067006,0.2886488,0.5501973216522178
0.0025,1.79984375,1.0,116.46863335186295,0.02934874265436282,1.3730450741301479,0.17984320998816244,0.28864643749999996,0.5562416220256139
0.003,1.7997750000000001,1.0,184.72526328126685,0.03479332872258542,1.3703553375554751,0.23294176282868878,0.28864354999999997,0.5626177421689098
0.0035,1.79969375,1.0,263.7895662136344,0.04020737496710579,1.3678015387836124,0.28612586175559224,0.2886401375,0.5686289160344606
0.004,1.7996,1.0,348.80887299435534,0.04559105268955331,1.3654466813597972,0.3378911762288971,0.2886362,0.5741349588109403
0.0045000000000000005,1.7994937500000001,1.0,437.29334617960984,0.05094453225121771,1.3632758390305324,0.387218577809238,0.2886317375,0.5791794157419092
0.005,1.799375,1.0,527.778126321612,0.05626798297230727,1.3612639201079604,0.4334967447348195,0.28862675,0.5838277424369556
0.0055,1.79924375,1.0,619.2573239404226,0.06156157345753715,1.3593892037415036,0.4764264410730386,0.2886212375,0.5881358425830612
0.006,1.7991000000000001,1.0,710.8622048831008,0.06682547098124875,1.3576364353555626,0.5159317126849802,0.2886152,0.5921434314609901
0.006500000000000001,1.79894375,1.0,801.9458281667447,0.07205984224759879,1.3559924394015916,0.552083528687491,0.2886086375,0.5958845124008422
0.007,1.798775,1.0,891.9268932001094,0.07726485281049675,1.3544474168444713,0.585044804123305,0.28860155,0.5993846578197755
0.0075,1.79859375,1.0,980.3461564027753,0.08244066731544782,1.352992829715275,0.6150289754174545,0.2885939375,0.602666014571438
0.008,1.7984,1.0,1066.8413104977783,0.08758744982112517,1.3516211898777353,0.6422723980066041,0.2885858,0.6057478916739976
0.0085,1.79819375,1.0,1151.10105126242,0.09270536272878725,1.350326262541597,0.6670164399323124,0.2885771375,0.6086463959618496
0.009000000000000001,1.797975,1.0,1232.9063425923916,0.09779456796708144,1.3491021058780919,0.6894956888865085,0.28856795,0.6113766571156938
0.0095,1.79774375,1.0,1312.1145144230338,0.10285522735820155,1.3479430909654244,0.7099314808100844,0.2885582375,0.6139528234994465
0.01,1.7975,1.0,1388.5904413592377,0.10788750034662768,1.3468446117739155,0.7285289194245841,0.288548,0.6163865283271743
0.0105,1.79724375,1.0,1462.2540512307603,0.11289154592754466,1.3458022591522305,0.7454751122813364,0.2885372375,0.618688767746217
0.011,1.796975,1.0,1533.0702163187625,0.1178675225807466,1.3448118412973398,0.7609391763661854,0.28852595000000003,0.6208698791490376
0.0115,1.79669375,1.0,1601.0421989146314,0.12281558857089007,1.3438693691028667,0.7750729849978945,0.2885141375,0.6229395950025396
0.012,1.7964,1.0,1666.1662519734798,0.12773589978175232,1.342971504313293,0.7880125249746762,0.28850180000000003,0.6249060817253725
0.0125,1.79609375,1.0,1728.4643131910625,0.13262861155309613,1.3421150747001682,0.7998790207210565,0.2884889375,0.6267770269862829
0.013000000000000001,1.7957750000000001,1.0,1787.9843575798952,0.13749387876674357,1.3412970157787247,0.8107803300390014,0.28847555,0.6285597800399775
0.0135,1.79544375,1.0,1844.7960630408825,0.14233185629248737,1.3405143749904604,0.8208123383673206,0.2884616375,0.630261353395587
0.014,1.7951000000000001,1.0,1898.9564421501548,0.1471426968715906,1.3397646467299946,0.8300603888800817,0.2884472,0.6318877067361033
0.0145,1.79474375,1.0,1950.5230482596426,0.1519265520185709,1.3390455727047914,0.8386003968456663,0.2884322375,0.6334441952464287
0.015,1.794375,1.0,1999.5737531027696,0.1566835732479459,1.3383548946223147,0.8464998542141028,0.28841675,0.6349361137918441
0.0155,1.79399375,1.0,2046.186208209244,0.16141391092619012,1.3376905513207624,0.8538188816771509,0.2884007375,0.6363682766220649
0.016,1.7936,1.0,2090.4679782543176,0.16611771632754557,1.3370503381780898,0.8606109923965417,0.2883842,0.6377457574427146
0.0165,1.7931937500000001,1.0,2132.4875019712363,0.17079513716295,1.3364326096393677,0.8669240845172217,0.2883671375,0.6390723825613674
0.017,1.792775,1.0,2172.319605200597,0.17544632080134112,1.3358357754226193,0.8728009534787458,0.28834955,0.6403518238083163
0.0175,1.7923437500000001,1.0,2210.0497417833185,0.1800714146116568,1.3352582452458672,0.8782798783825151,0.2883314375,0.6415877200084884
0.018000000000000002,1.7919,1.0,2245.7611115176255,0.18467056478125404,1.334698548820169,0.8833951831996905,0.2883128,0.6427834228879876
0.0185,1.79144375,1.0,2279.5504252931078,0.18924391860936074,1.3341551661092377,0.8881776540930968,0.2882936375,0.6439423627630988
0.019,1.790975,1.0,2311.490588712818,0.1937916199689234,1.3336268903183826,0.8926550353264685,0.28827395,0.6450672769658353
0.0195,1.79049375,1.0,2341.652455551033,0.19831381181797902,1.3331125972711237,0.8968523196693677,0.2882537375,0.6461607064390502
0.02,1.79,1.0,2370.1125033288704,0.2028106371145647,1.332611162790982,0.9007920403114529,0.288233,0.6472251734273944
0.0205,1.78949375,1.0,2396.950248903946,0.2072822384459982,1.332121483160064,0.9044945504776907,0.2882117375,0.6482631391057375
0.021,1.788975,1.0,2422.2385485575955,0.2117287571396259,1.3316425638621554,0.9079782831065009,0.28818995000000003,0.6492768170756893
0.021500000000000002,1.78844375,1.0,2446.0599093070487,0.21615033643767978,1.331173356339445,0.9112599272798183,0.2881676375,0.6502685205703667
0.022,1.7879,1.0,2468.471809529151,0.22054711447410727,1.3307130873395885,0.9143546794824238,0.2881448,0.651239967673207
0.0225,1.78734375,1.0,2489.534665960199,0.22491922938285597,1.3302609836102413,0.9172763489319317,0.28812143749999997,0.6521928657678443
0.023,1.786775,1.0,2509.3115902990235,0.2292668192978733,1.3298162718990585,0.9200375034207021,0.28809755,0.6531289119598416
0.0235,1.78619375,1.0,2527.868159067032,0.23359002235310672,1.3293781789536958,0.9226495980979684,0.28807313749999996,0.6540497934602907
0.024,1.7856,1.0,2545.261189551675,0.23788897407550294,1.3289460351305828,0.9251231067133414,0.2880482,0.654956970573563
0.0245,1.78499375,1.0,2561.5576011707285,0.24216381420838307,1.3285190938596203,0.9274675919378598,0.2880227375,0.6558520566634375
0.025,1.784375,1.0,2576.8084700670133,0.2464146776610454,1.328096773940985,0.929691833285767,0.28799675,0.656736310361984
0.025500000000000002,1.78374375,1.0,2591.0586253039987,0.2506416971921763,1.3276785661208867,0.9318038889972058,0.2879702375,0.6576108332428561
0.026000000000000002,1.7831000000000001,1.0,2604.354153050981,0.2548450055604621,1.3272639611455361,0.9338111549776399,0.2879432,0.6584767210948119
0.0265,1.78244375,1.0,2616.7422892897284,0.25902473552458893,1.326852449761143,0.9357204281639555,0.2879156375,0.6593350640470012
0.027,1.781775,1.0,2628.27131827082,0.2631810198432434,1.3264435227139177,0.9375379630557944,0.28788755,0.6601869466777037
0.0275,1.7810937500000001,1.0,2638.9865570546995,0.2673139899815699,1.3260367069841839,0.9392695271201126,0.2878589375,0.6610333727643796
0.028,1.7804,1.0,2648.927839968293,0.2714237763186581,1.3256315878254008,0.9409204487198309,0.2878298,0.6618752200583811
0.0285,1.77969375,1.0,2658.1489889930685,0.2755105139062689,1.32522762819398,0.9424956331307375,0.2878001375,0.662713615622826
0.029,1.778975,1.0,2666.680996177094,0.2795743296200825,1.3248245077017737,0.9439996431862828,0.28776995,0.6635492321310598
0.029500000000000002,1.7782437500000001,1.0,2674.555365793251,0.28361535033577884,1.3244219059606333,0.9454367023434991,0.2877392375,0.6643827389441008
0.03,1.7775,1.0,2681.8040694158226,0.2876337029290381,1.3240195025824109,0.9468107242588152,0.287708,0.6652148021245123
0.0305,1.77674375,1.0,2688.4595032733437,0.29162951427554046,1.3236169771789583,0.9481253394357259,0.2876762375,0.6660460844437295
0.031,1.775975,1.0,2694.5544478771935,0.2956029112509658,1.3232140093621276,0.9493839192660067,0.28764395,0.6668772453828395
0.0315,1.7751937500000001,1.0,2700.122029925807,0.29955402073099446,1.3228102787437703,0.9505895977476633,0.2876111375,0.6677089411268153
0.032,1.7744,1.0,2705.189002120745,0.30348296547600956,1.3224055259664456,0.9517452972939944,0.2875778,0.6685416990634554
0.0325,1.77359375,1.0,2709.789397104418,0.30738987490869535,1.3219994275784446,0.9528537342211771,0.2875439375,0.6693761755075065
0.033,1.772775,1.0,2713.947353613132,0.3112748720762467,1.3215917525942058,0.9539174499252863,0.28750955,0.6702128337480457
0.0335,1.7719437500000002,1.0,2717.6841333008524,0.31513807795454196,1.321182297986104,0.9549388185444305,0.2874746375,0.6710520773608593
0.034,1.7711000000000001,1.0,2721.0211620933073,0.3189796135194594,1.3207708607265147,0.9559200575272261,0.2874392,0.6718943077448052
0.0345,1.7702437500000001,1.0,2723.980013244996,0.32279959974687744,1.3203572377878126,0.9568632398182506,0.2874032375,0.6727399240974583
0.035,1.7693750000000001,1.0,2726.5823913089257,0.3265981576126743,1.3199412261423724,0.9577703049599916,0.28736675,0.6735893233881228
0.035500000000000004,1.76849375,1.0,2728.850117021782,0.3303754080927284,1.3195226227625694,0.9586430692189433,0.2873297375,0.6744429003282169
0.036000000000000004,1.7676,1.0,2730.801160007332,0.33413146796182214,1.3191012605443349,0.9594832375560336,0.2872922,0.6753009742315579
0.0365,1.76669375,1.0,2732.453684899857,0.33786645529852477,1.3186769713741349,0.9602924093829651,0.2872541375,0.6761638645274517
0.037,1.765775,1.0,2733.835574848044,0.34158050043265,1.3182494995394602,0.9610720800787955,0.28721555,0.6770320664632752
0.0375,1.76484375,1.0,2734.959371957895,0.34527371744903473,1.3178187292840584,0.9618236645995233,0.2871764375,0.6779057886360536
0.038,1.7639,1.0,2735.837666677567,0.3489462204325161,1.317384544851677,0.9625484932033881,0.28713679999999997,0.6787852381673911
0.0385,1.76294375,1.0,2736.4830919233486,0.3525981234679312,1.3169468304860634,0.9632478174452282,0.28709663750000003,0.6796706206786944
0.039,1.761975,1.0,2736.9083175017845,0.3562295406401169,1.3165054704309658,0.9639228156839671,0.28705595,0.6805621402655391
0.0395,1.7609937500000001,1.0,2737.1260448304565,0.3598405860339105,1.316060348930131,0.9645745981475976,0.2870147375,0.6814599994711857
0.04,1.76,1.0,2737.1490019539488,0.3634313737341489,1.3156113502273072,0.9652042115955598,0.286973,0.6823643992592348
0.0405,1.7589937500000001,1.0,2736.98993885864,0.36700201782566916,1.3151583585662419,0.9658126436144541,0.2869307375,0.6832755389854341
0.041,1.757975,1.0,2736.661623083142,0.3705526323933084,1.3147012581906827,0.9664008265794758,0.28688795,0.6841936163686264
0.0415,1.75694375,1.0,2736.1768356269026,0.3740833315219036,1.314239933344377,0.9669696413108049,0.2868446375,0.6851188274608465
0.042,1.7559,1.0,2735.5442777575263,0.3775942219036692,1.3137743054010507,0.9675199223264574,0.28680079999999997,0.6860512923153322
0.0425,1.75484375,1.0,2734.774760904816,0.3810854203158851,1.3133042766491558,0.9680524590804993,0.2867564375,0.6869911678359351
0.043000000000000003,1.753775,1.0,2733.8793917719777,0.38455704262998414,1.3128297467390038,0.9685679983745071,0.28671155,0.6879386146530956
0.043500000000000004,1.75269375,1.0,2732.865080681725,0.38800919563263975,1.312350653459083,0.9690672490708458,0.28666613750000003,0.6888937158280736
0.044,1.7516,1.0,2731.738740964161,0.39144198611052533,1.3118669345978826,0.9695508828908612,0.2866202,0.6898565532669643
0.0445,1.75049375,1.0,2730.507287508426,0.3948555208503143,1.3113785279438912,0.9700195367238689,0.2865737375,0.6908272077024725
0.045,1.7493750000000001,1.0,2729.1776353987175,0.39824990663868004,1.3108853712855975,0.9704738147707199,0.28652675,0.6918057586754344
0.0455,1.74824375,1.0,2727.756698636542,0.40162525026229595,1.3103874024114905,0.9709142905352872,0.2864792375,0.6927922845160952
0.046,1.7471,1.0,2726.251388949631,0.4049816585078354,1.309884559110059,0.9713415086760377,0.2864312,0.6937868623251415
0.0465,1.7459437500000001,1.0,2724.6686146851243,0.4083192381619718,1.3093767791697914,0.9717559867287661,0.28638263750000004,0.6947895679544838
0.047,1.744775,1.0,2723.015279789746,0.4116380960113786,1.3088640003791772,0.9721582167105988,0.28633355,0.6958004759877923
0.0475,1.74359375,1.0,2721.2982828758195,0.41493833884272907,1.3083461605267046,0.972548666614496,0.28628393750000003,0.6968196597207899
0.048,1.7424,1.0,2719.5151814588226,0.4182200487711543,1.3078232824072444,0.9729277846809199,0.2862338,0.6978470242602992
0.0485,1.74119375,1.0,2717.6799871382145,0.4214833586908729,1.307295238980815,0.9732959936144129,0.2861831375,0.6988827681751397
0.049,1.739975,1.0,2715.798868421528,0.4247283770002087,1.306761974522864,0.9736536979034189,0.28613195,0.6999269482998525
0.0495,1.73874375,1.0,2713.8745493812085,0.4279552022141292,1.306223464642163,0.9740012839734523,0.2860802375,0.7009795590004779
0.05,1.7375,1.0,2711.9097514030395,0.43116393284760185,1.3056796849474839,0.9743391202846197,0.286028,0.7020405937831856
0.0505,1.73624375,1.0,2709.907192976792,0.434354667415594,1.3051306110475986,0.9746675583249536,0.2859752375,0.703110045286094
0.051000000000000004,1.734975,1.0,2707.869589499898,0.4375275044330731,1.3045762185512788,0.9749869335402732,0.28592195,0.7041879052710576
0.051500000000000004,1.73369375,1.0,2705.799653094029,0.44068254241500654,1.3040164830672967,0.9752975662051542,0.2858681375,0.7052741646154086
0.052000000000000005,1.7324,1.0,2703.700092435279,0.44381987987636184,1.3034513802044236,0.9755997622392227,0.2858138,0.7063688133036681
0.0525,1.73109375,1.0,2701.5736125972835,0.4469396153321063,1.3028808855714318,0.9758938139726507,0.28575893750000003,0.7074718404192132
0.053,1.729775,1.0,2699.422914907529,0.4500418472972075,1.302304974777093,0.9761800008644286,0.28570355000000003,0.7085832341359095
0.0535,1.72844375,1.0,2697.2506968169796,0.4531266742866327,1.3017236234301792,0.9764585901767049,0.2856476375,0.7097029817097048
0.054,1.7271,1.0,2695.05965178303,0.4561941948153495,1.301136807139462,0.9767298376082362,0.2855912,0.7108310694701865
0.0545,1.7257437500000001,1.0,2692.8524691650227,0.4592445073983252,1.3005445015137134,0.9769939878897469,0.2855342375,0.7119674828120968
0.055,1.724375,1.0,2690.6318341337123,0.4622777105505272,1.2999466821617052,0.9772512753437935,0.28547675,0.7131122061868145
0.0555,1.72299375,1.0,2688.4004275934935,0.465293902786923,1.2993433246922093,0.9775019244115264,0.2854187375,0.7142652230937965
0.056,1.721605245541607,1.0,2686.4171619091944,0.4682931802355684,1.2987344259239422,0.9777461511661973,0.2853604203127475,0.7154264756629232
0.0565,1.720216697115306,1.0,2684.9914075460724,0.47127563531194705,1.2981204043447705,0.9779841867652047,0.2853021012788428,0.7165951036776484
0.057,1.7188281486890045,1.0,2684.082945765272,0.47424136151385554,1.297501644398173,0.9782162510595667,0.2852437822449382,0.7177703175394865
0.0575,1.7174396002627033,1.0,2683.6537837435644,0.47719045201884375,1.2968784919550316,0.978442552776463,0.28518546321103355,0.7189514062962572
0.058,1.716051051836402,1.0,2683.666076059946,0.48012300000446145,1.296251292886228,0.9786632922632295,0.28512714417712887,0.7201376641047141
0.0585,1.7146625034101006,1.0,2684.0820923382207,0.48303909864825834,1.2956203930626435,0.9788786619004913,0.28506882514322424,0.721328390323623
0.059000000000000004,1.7132739549837994,1.0,2684.8695339553915,0.48593883994072706,1.294986089356004,0.9790888436932933,0.28501050610931955,0.722522981780777
0.059500000000000004,1.711885406557498,1.0,2685.993701541174,0.488822316999298,1.2943487012108272,0.9792940138678382,0.2849521870754149,0.723720797498403
0.06,1.7104968581311968,1.0,2687.4304038456135,0.4916896201279544,1.2937084521664177,0.9794943364215082,0.2848938680415103,0.7249213811416043
0.0605,1.7091083097048956,1.0,2689.1557595371314,0.4945408395564283,1.2930655632105457,0.9796899689197816,0.2848355490076056,0.7261242846303753
0.061,1.7077197612785942,1.0,2691.14590536381,0.49737606551445157,1.2924202553309811,0.979881062939643,0.2847772299737009,0.7273290633678693
0.0615,1.706331212852293,1.0,2693.3778312153677,0.5001953879052238,1.2917727417609597,0.9800677639150152,0.2847189109397963,0.7285352907056516
0.062,1.7049426644259915,1.0,2695.830248486008,0.5029988963573598,1.291123219951127,0.9802502110050779,0.28466059190589166,0.7297425727209428
0.0625,1.7035541159996903,1.0,2698.483666073471,0.5057866800793509,1.2904718708228144,0.9804285373300846,0.28460227287198697,0.730950549300683
0.063,1.702165567573389,1.0,2701.32309673175,0.5085588264463702,1.2898188340073171,0.980602868866957,0.28454395383808234,0.7321589395874973
0.0635,1.7007770191470877,1.0,2704.333541112702,0.5113154228335904,1.2891642491359303,0.9807733270034265,0.28448563480417766,0.7333674649925179
0.064,1.6993884707207865,1.0,2707.499982757841,0.5140565566161849,1.2885082558399494,0.9809400287426514,0.284427315770273,0.7345758492097905
0.0645,1.697999922294485,1.0,2710.8134764071215,0.5167823106245435,1.287850938178057,0.9811030837877686,0.2843689967363684,0.7357839202487642
0.065,1.6966113738681838,1.0,2714.25447286746,0.5194927763916242,1.2871924767704521,0.9812626033548366,0.2843106777024637,0.7369913306328231
0.0655,1.6952228254418826,1.0,2717.807674352767,0.5221880430041854,1.2865330131410573,0.9814186926473496,0.2842523586685591,0.7381978073351617
0.066,1.6938342770155812,1.0,2721.465775755777,0.524868193568468,1.2858726157531748,0.9815714492063107,0.2841940396346544,0.7394032128904262
0.0665,1.69244572858928,1.0,2725.221457837022,0.5275333111907128,1.285211353070107,0.9817209671848578,0.28413572060074976,0.7406074109691287
0.067,1.6910571801629786,1.0,2729.0673858593454,0.5301834789771603,1.2845492935551561,0.9818673374916784,0.2840774015668451,0.741810266381574
0.0675,1.6896686317366774,1.0,2732.996208326432,0.5328187800340515,1.2838865056716244,0.9820106479274009,0.28401908253294045,0.7430116450814884
0.068,1.6882800833103762,1.0,2737.0005558250705,0.5354392974676268,1.2832230578828145,0.9821509833143524,0.28396076349903576,0.7442114141693492
0.0685,1.6868915348840747,1.0,2741.0730399717886,0.538045114384127,1.2825590186520286,0.9822884256200496,0.28390244446513113,0.7454094418954164
0.069,1.6855029864577735,1.0,2745.2062524628964,0.5406363138897929,1.2818944564425687,0.9824230540747663,0.2838441254312265,0.7466055976624641
0.0695,1.684114438031472,1.0,2749.3927642285753,0.5432129790908653,1.2812294397177377,0.9825549452834961,0.2837858063973218,0.7477997520282121
0.07,1.6827258896051709,1.0,2753.6292241288525,0.5457751857421238,1.280563999842106,0.9826841711617672,0.2837274873634172,0.7489918430886442
0.07050000000000001,1.6813373411788697,1.0,2757.9087243795375,0.5483230198838438,1.2798982002566968,0.9828108033794792,0.2836691683295125,0.7501817522100194
0.07100000000000001,1.6799487927525683,1.0,2762.2230962430676,0.5508565698376725,1.2792321156079958,0.9829349119313291,0.28361084929560787,0.7513693418784531
0.07150000000000001,1.678560244326267,1.0,2766.569721349054,0.5533759130752567,1.2785657702036102,0.9830565616300114,0.28355253026170324,0.7525545652770071
0.07200000000000001,1.6771716958999656,1.0,2770.945973345666,0.5558811270682433,1.277899188351148,0.9831758152149271,0.28349421122779855,0.7537373760005524
0.0725,1.6757831474736644,1.0,2775.349217765522,0.5583722892882792,1.2772323943582167,0.983292733432917,0.28343589219389387,0.7549177280561551
0.073,1.6743945990473632,1.0,2779.7768119048715,0.5608494772070115,1.276565412532424,0.9834073751153486,0.28337757315998924,0.7560955758634252
0.0735,1.6730060506210618,1.0,2784.226104715685,0.5633127682960869,1.2758982671813774,0.9835197972517454,0.2833192541260846,0.7572708742548255
