Time [s],Phi [rad],STIM [ ],Fsee [N],Gamma [ ],Lcerel [ ],q [ ],Lmtc [m],fisomrel [ ]
0.0,1.8,1.0,17.96709336707344,1.006105613375966e-05,1.3793397534795515,0.005000026976921649,0.288653,0.5411395134887536
0.0005,1.79999375,1.0,18.27645184156815,0.005619213930359958,1.379302420258974,0.012940684151366559,0.2886527375,0.5412298277604739
0.001,1.799975,1.0,21.618120048710605,0.011196903891883691,1.3789383288230836,0.03560889689874964,0.28865195,0.5421101497090834
0.0015,1.79994375,1.0,31.06897988986184,0.016743307423629495,1.3780462255490884,0.07060214433363685,0.2886506375,0.5442635565946677
0.002,1.7999,1.0,53.582055030034454,0.022258600016871,1.3763681532779564,0.11471835697152626,0.2886488,0.5483004247389693
0.0025,1.79984375,1.0,97.11847958181325,0.027742956178794128,1.3739351893326304,0.1645752397526177,0.28864643749999996,0.5541214100088325
0.003,1.7997750000000001,1.0,160.95776784299932,0.033196549440214704,1.3712143586904024,0.21728081064847016,0.28864354999999997,0.5605864155040601
0.0035,1.79969375,1.0,237.68298844721122,0.03861955235516941,1.368584744801415,0.2706132420706897,0.2886401375,0.566789814731109
0.004,1.7996,1.0,321.46649520458277,0.04401213651169818,1.3661560997099107,0.3229161432495745,0.2886362,0.5724799446595216
0.0045000000000000005,1.7994937500000001,1.0,409.26755007425294,0.0493744725370286,1.3639228188781254,0.37303483154157097,0.2886317375,0.5776791514661963
0.005,1.799375,1.0,499.41335819455065,0.05470673008866672,1.361858345448732,0.4202477639993486,0.28862675,0.5824570721591393
0.0055,1.79924375,1.0,590.7903211916492,0.06000907790185901,1.3599388369125538,0.4641739794316063,0.2886212375,0.586875107404458
0.006,1.7991000000000001,1.0,682.5180544103131,0.06528168373275571,1.358146415727479,0.5046802211362631,0.2886152,0.590979416140178
0.006500000000000001,1.79894375,1.0,773.8815678146766,0.07052471441366026,1.3564672483261646,0.5418009944712775,0.2886086375,0.5948058063481266
0.007,1.798775,1.0,864.2858889334985,0.07573833583810562,1.354890393740783,0.5756769980539884,0.28860155,0.5983826799442347
0.0075,1.79859375,1.0,953.2425090861436,0.08092271296864217,1.3534067900551476,0.6065101221371018,0.2885939375,0.6017335482873623
0.008,1.7984,1.0,1040.3570400204444,0.08607800982034955,1.3520086671713145,0.6345322539270123,0.2885858,0.6048785020289373
0.0085,1.79819375,1.0,1125.3188706937885,0.09120438959804311,1.3506891757682067,0.6599845667870937,0.2885771375,0.6078351466805352
0.009000000000000001,1.797975,1.0,1207.8786904059834,0.09630201419899508,1.3494423286895836,0.6831045113418645,0.28856795,0.610618810331636
0.0095,1.79774375,1.0,1287.8731073059664,0.10137104544454828,1.3482623765274553,0.7041177551925413,0.2885582375,0.6132439958400797
0.01,1.7975,1.0,1365.1663543746463,0.1064116435845845,1.3471443942104866,0.7232343627440946,0.288548,0.6157231172456451
0.0105,1.79724375,1.0,1439.659352534943,0.1114239676268301,1.3460839482229796,0.7406467804281899,0.2885372375,0.6180672856581441
0.011,1.796975,1.0,1511.3072764536673,0.11640817618992405,1.3450767361143496,0.7565293230977554,0.28852595000000003,0.6202871370939653
0.0115,1.79669375,1.0,1580.1108064738803,0.12136442783409014,1.3441186049851523,0.7710387648698702,0.2885141375,0.6223928115531654
0.012,1.7964,1.0,1646.0654278510592,0.1262928790427233,1.3432060664372545,0.7843156393227131,0.28850180000000003,0.6243928442623305
0.0125,1.79609375,1.0,1709.1785750575557,0.1311936851286355,1.3423359819507996,0.7964853894932608,0.2884889375,0.6262948834878246
0.013000000000000001,1.7957750000000001,1.0,1769.4936912016587,0.13606700136341648,1.3415052179675138,0.8076596291615796,0.28847555,0.6281064607811253
0.0135,1.79544375,1.0,1827.0733768233454,0.14091298201460736,1.3407107967393455,0.8179376156695607,0.2884616375,0.6298346715090575
0.014,1.7951000000000001,1.0,1881.9864316292128,0.14573178140106605,1.3399499937138821,0.8274076230812519,0.2884472,0.6314859750444244
0.0145,1.79474375,1.0,1934.2857480749392,0.15052355090315506,1.3392205301062605,0.8361482336680255,0.2884322375,0.6330657906710064
0.015,1.794375,1.0,1984.0451928284574,0.15528844190123683,1.3385201271316165,0.8442292956250712,0.28841675,0.6345794755318693
0.0155,1.79399375,1.0,2031.3472482311051,0.16002660494089613,1.3378466171383263,0.8517129812680332,0.2884007375,0.6360320895669298
0.016,1.7936,1.0,2076.287673200714,0.16473819128462264,1.3371978713099417,0.8586546705381276,0.2883842,0.637428557347079
0.0165,1.7931937500000001,1.0,2118.9530885902573,0.16942335057551958,1.3365720133409542,0.8651038171318813,0.2883671375,0.6387732137615323
0.017,1.792775,1.0,2159.4097932109335,0.17408222963310602,1.335967507674631,0.8711046705189766,0.28834955,0.6400696230449516
0.0175,1.7923437500000001,1.0,2197.7347798487467,0.17871497527690106,1.3353828187542387,0.8766967921300662,0.2883314375,0.6413213165958593
0.018000000000000002,1.7919,1.0,2234.0148422590987,0.18332173432642382,1.3348164110230447,0.8819156067005367,0.2883128,0.6425317949924987
0.0185,1.79144375,1.0,2268.337399867131,0.1879026526371035,1.33426683202728,0.886792906235931,0.2882936375,0.6437043526991271
0.019,1.790975,1.0,2300.7940119862665,0.19245787649952234,1.3337326668761291,0.8913572594613546,0.28827395,0.6448421781241921
0.0195,1.79049375,1.0,2331.4641789170514,0.19698755026966483,1.3332126894289766,0.8956344157923616,0.2882537375,0.6459480344499628
0.02,1.79,1.0,2360.4140457094913,0.20149181592257698,1.3327058629120705,0.8996476229073278,0.288233,0.6470242627038729
0.0205,1.78949375,1.0,2387.7148059794254,0.20597081543330467,1.3322111505516592,0.9034178642572569,0.2882117375,0.6480731870189504
0.021,1.788975,1.0,2413.44228176179,0.21042469077689396,1.3317275155739907,0.9069641104003315,0.28818995000000003,0.6490971154690937
0.021500000000000002,1.78844375,1.0,2437.6540548907315,0.21485358256756013,1.3312541373516964,0.910303585038822,0.2881676375,0.6500978842072177
0.022,1.7879,1.0,2460.454337635875,0.21925763278304922,1.3307897817671328,0.9134518232637534,0.2881448,0.6510781896634332
0.0225,1.78734375,1.0,2481.925576652472,0.22363698136598734,1.3303334594404976,0.9164229862134966,0.28812143749999997,0.6520401963458964
0.023,1.786775,1.0,2502.099819232002,0.22799176526807668,1.3298846889564788,0.9192300546129571,0.28809755,0.6529849872196659
0.0235,1.7861948574024769,1.0,2521.063997044515,0.23232212144101952,1.3294429888997654,0.9218848531439773,0.28807318401090404,0.6539136385994548
0.024,1.7856126190620936,1.0,2539.3000945424906,0.23662818683651807,1.3290078778550458,0.9243981693260626,0.28804873000060793,0.6548272203741048
0.0245,1.7850303807217103,1.0,2556.9515229341087,0.24091009840627456,1.3285788744070086,0.9267798587477928,0.28802427599031183,0.6557267962162732
0.025,1.784448142381327,1.0,2574.05177596198,0.24516799206111212,1.32815560190798,0.9290389559694181,0.2879998219800157,0.6566132045166176
0.025500000000000002,1.7838659040409435,1.0,2590.6044357242095,0.24940200313507457,1.3277379699155785,0.9311837857862434,0.2879753679697196,0.6574866807258144
0.026000000000000002,1.7832836657005602,1.0,2606.625291220701,0.2536122647801721,1.3273257775896885,0.9332219647004507,0.2879509139594235,0.6583476891750821
0.0265,1.782701427360177,1.0,2622.131471312491,0.2577989097474955,1.3269188160008158,0.9351604870643514,0.2879264599491274,0.6591967083693391
0.027,1.7821191890197936,1.0,2637.140558638972,0.2619620707881356,1.326516876219466,0.9370057856227889,0.2879020059388313,0.6600342141067665
0.0275,1.7815369506794103,1.0,2651.651194588128,0.26610185591820734,1.3261199279594642,0.9387638005080969,0.28787755192853526,0.6608603079965366
0.028,1.780954712339027,1.0,2665.71223924885,0.2702184352527188,1.3257274808958373,0.9404399665228764,0.2878530979182391,0.6616760465218494
0.0285,1.7803724739986435,1.0,2679.3368283847353,0.27431193496843564,1.3253393789461554,0.9420393309759099,0.28782864390794305,0.6624817873307713
0.029,1.7797902356582602,1.0,2692.537572163753,0.27838248022482603,1.3249554736009228,0.9435665593400083,0.28780418989764694,0.6632778704617346
0.029500000000000002,1.779207997317877,1.0,2705.3273600205453,0.28243019618135806,1.3245756163506437,0.9450259684651647,0.28777973588735084,0.6640646341536982
0.03,1.7786257589774936,1.0,2717.719347082074,0.2864552079974998,1.3241996586858227,0.9464215570987534,0.28775528187705474,0.6648424148851917
0.0305,1.7780435206371104,1.0,2729.7269410835256,0.2904576408327195,1.3238274520969635,0.947757033372215,0.28773082786675863,0.6656115474119542
0.031,1.7774612822967268,1.0,2741.3637897723625,0.2944376198464852,1.323458848074571,0.9490358395886694,0.2877063738564625,0.6663723648031619
0.0315,1.7768790439563436,1.0,2752.643768802025,0.298395270198265,1.323093698109149,0.9502611746057533,0.2876819198461664,0.6671251984762567
0.032,1.7762968056159603,1.0,2763.580970114167,0.3023307170475271,1.3227318536912018,0.9514360140729987,0.2876574658358703,0.6678703782303594
0.0325,1.775714567275577,1.0,2774.189690810016,0.3062440855537396,1.322373166311234,0.9525631287525302,0.2876330118255742,0.6686082322782829
0.033,1.7751323289351937,1.0,2784.4844225109628,0.3101355008763706,1.3220174874597495,0.9536451011252276,0.28760855781527817,0.6693390872771369
0.0335,1.7745500905948104,1.0,2794.4798412074756,0.31400508817488826,1.3216646686272528,0.9546843404611501,0.287584103804982,0.6700632683575243
0.034,1.7739678522544269,1.0,2804.1907975984095,0.3178529726087606,1.321314561304248,0.955683096512631,0.28755964979468596,0.6707810991513349
0.0345,1.7733856139140436,1.0,2813.624027325224,0.32167926681487247,1.3209670911148934,0.9566434768861336,0.2875351957843898,0.6714927500677415
0.035,1.7728033755736603,1.0,2822.796183291191,0.3254841027867375,1.3206220959609722,0.9575674486096003,0.28751074177409375,0.6721985700943658
0.035500000000000004,1.772221137233277,1.0,2831.7201169340506,0.32926760485481793,1.320279449101359,0.958456855124696,0.28748628776379764,0.6728988344493942
0.036000000000000004,1.7716388988928937,1.0,2840.4038645377445,0.33302988918521753,1.3199390678370109,0.9593134264433588,0.28746183375350154,0.6735937272690834
0.0365,1.7710566605525102,1.0,2848.8555541662604,0.3367710719440398,1.319600869468885,0.9601387850242826,0.28743737974320543,0.674283431870959
0.037,1.770474422212127,1.0,2857.0834015853707,0.34049126929738865,1.319264771297938,0.9609344536782598,0.28741292573290933,0.6749681307655465
0.0375,1.7698921838717436,1.0,2865.0957063360715,0.3441905974113676,1.3189306906251268,0.9617018628076012,0.2873884717226132,0.6756480056676648
0.038,1.7693099455313603,1.0,2872.9008479592926,0.3478691724520805,1.3185985447514086,0.9624423570424925,0.2873640177123171,0.6763232375072854
0.0385,1.768727707190977,1.0,2880.5072823727696,0.35152711058563085,1.3182682509777401,0.963157201330607,0.287339563702021,0.676994006439956
0.039,1.7681454688505935,1.0,2887.923538399119,0.3551645279781224,1.3179397266050787,0.963847586530503,0.2873151096917249,0.677660491856785
0.0395,1.7675632305102102,1.0,2895.1582144458835,0.35878154079565894,1.317612888934381,0.9645146345541775,0.2872906556814288,0.6783228723939941
0.04,1.766980992169827,1.0,2902.2199753368373,0.3623782652043441,1.3172876552666042,0.9651594030995808,0.2872662016711327,0.6789813259420299
0.0405,1.7663987538294437,1.0,2909.116377914212,0.36595481424122944,1.3169639532161799,0.9657828903507618,0.28724174766083665,0.6796360088060311
0.041,1.7658165154890604,1.0,2915.8494928704617,0.3695112884856945,1.3166417591294077,0.9663860406719263,0.28721729365054055,0.6802869782379916
0.0415,1.7652342771486769,1.0,2922.434920262984,0.37304782629033223,1.3163209307477632,0.9669697426392595,0.28719283964024445,0.6809345305193519
0.042,1.7646520388082936,1.0,2928.8771771820916,0.37656453537659546,1.3160014238209528,0.9675348391441498,0.28716838562994834,0.6815787632115133
0.0425,1.7640698004679103,1.0,2935.1808147932547,0.3800615234659369,1.3156831940986833,0.9680821274842825,0.28714393161965224,0.6822197734810366
0.043000000000000003,1.763487562127527,1.0,2941.35041706247,0.3835388982798094,1.3153661973306614,0.9686123622937863,0.28711947760935613,0.682857658103311
0.043500000000000004,1.7629053237871437,1.0,2947.3905995247046,0.3869967675396658,1.3150503892665941,0.9691262582565648,0.28709502359906003,0.6834925134660954
0.044,1.7623230854467604,1.0,2953.3060080962628,0.3904352389669587,1.314735725656188,0.9696244926208595,0.2870705695887639,0.6841244355729361
0.0445,1.761740847106377,1.0,2959.101317929988,0.3938544202831411,1.3144221622491497,0.970107707531461,0.2870461155784678,0.6847535200464586
0.045,1.7611586087659936,1.0,2964.781232314218,0.3972544192096657,1.314109654795186,0.9705765121944557,0.2870216615681717,0.685379862131534
0.0455,1.7605763704256103,1.0,2970.350481615225,0.4006353434679853,1.313798159044004,0.9710314848880665,0.2869972075578756,0.6860035566983227
0.046,1.759994132085227,1.0,2975.8138222628295,0.4039973007795527,1.3134876307453098,0.971473174831918,0.28697275354757956,0.6866246982451922
0.0465,1.7594118937448437,1.0,2981.1760357792873,0.40734039886582063,1.3131780256488106,0.971902103925973,0.2869482995372834,0.6872433809015082
0.047,1.7588296554044602,1.0,2986.4419278525206,0.41066474544824194,1.312869299504213,0.9723187683693836,0.28692384552698735,0.687859698430303
0.0475,1.758247417064077,1.0,2991.615593888588,0.4139704445505615,1.3125614144302298,0.9727236401459745,0.28689939151669125,0.688473731534994
0.048,1.7576651787236937,1.0,2996.696433762881,0.41725757966340377,1.312254373452,0.9731171687514997,0.28687493750639514,0.6890854791457235
0.0485,1.7570829403833104,1.0,3001.695017599514,0.4205262928054748,1.3119480828048842,0.9734997827946036,0.28685048349609904,0.6896951327626184
0.049,1.756500702042927,1.0,3006.6136462192853,0.42377668281116876,1.3116425206888782,0.9738718901612068,0.28682602948580294,0.6903027401105934
0.0495,1.7559184637025438,1.0,3011.4546322838596,0.42700884851487997,1.311337665303978,0.9742338796427169,0.28680157547550683,0.6909083487342733
0.05,1.7553362253621603,1.0,3016.220299949113,0.43022288875100256,1.3110334948501798,0.9745861220025926,0.2867771214652107,0.6915120059989897
0.0505,1.754753987021777,1.0,3020.912984528464,0.43341890235393093,1.3107299875274794,0.9749289709740595,0.2867526674549146,0.6921137590917491
0.051000000000000004,1.7541717486813937,1.0,3025.535032167542,0.4365969881580592,1.3104271215358725,0.9752627641939985,0.2867282134446185,0.6927136550221704
0.051500000000000004,1.7535895103410104,1.0,3030.0887995285534,0.4397572449977817,1.3101248750753554,0.9755878240776272,0.2867037594343224,0.6933117406233904
0.052000000000000005,1.7530072720006271,1.0,3034.5766534857107,0.4428997717074927,1.309823226345924,0.9759044586382134,0.2866793054240263,0.6939080625529412
0.0525,1.7524250336602436,1.0,3039.0009708310918,0.4460246671215862,1.3095221535475743,0.9762129622557298,0.28665485141373026,0.6945026672935966
0.053,1.7518427953198603,1.0,3043.364137990827,0.44913203007445685,1.309221634880302,0.9765136163980458,0.2866303974034341,0.6950956011541873
0.0535,1.751260556979477,1.0,3047.6685507524844,0.45222195940049864,1.3089216485441035,0.9768066902979713,0.28660594339313805,0.6956869102703871
0.054,1.7506783186390937,1.0,3051.91661400181,0.45529455393410584,1.3086221727389744,0.977092441589212,0.28658148938284195,0.6962766406054677
0.0545,1.7500960802987104,1.0,3056.1107414711537,0.4583499125096728,1.308323185664911,0.977371116904059,0.28655703537254584,0.6968648379510233
0.055,1.749513841958327,1.0,3060.253355497904,0.4613881339615936,1.3080246655219088,0.9776429524354133,0.28653258136224974,0.6974515479276666
0.0555,1.7489316036179436,1.0,3064.346886793538,0.46440931712426264,1.307726590509964,0.9779081744655649,0.28650812735195363,0.6980368159856918
0.056,1.7483493652775604,1.0,3068.3893149503406,0.46741351672386344,1.3074289770583443,0.9781669980283321,0.28648367334165753,0.698620612451722
0.0565,1.747767126937177,1.0,3072.3870662880254,0.4704008819389795,1.3071317691982958,0.978419633763858,0.2864592193313614,0.6992030495826683
0.057,1.7471848885967938,1.0,3076.3416798892817,0.4733715072335285,1.3068349529609717,0.9786662811065415,0.2864347653210653,0.6997841570198924
0.0575,1.7466026502564103,1.0,3080.2542290046217,0.47632548204300934,1.3065385184082414,0.9789071312026536,0.2864103113107692,0.7003639564160722
0.058,1.746020411916027,1.0,3084.1257908222306,0.4792628958029208,1.3062424556019745,0.9791423675341007,0.2863858573004731,0.700942469345895
0.0585,1.7454381735756437,1.0,3087.9574463847193,0.48218383794876174,1.3059467546040409,0.9793721662866745,0.286361403290177,0.7015197173062973
0.059000000000000004,1.7448559352352604,1.0,3091.750280508756,0.485088397916031,1.30565140547631,0.9795966966977989,0.28633694927988096,0.7020957217166975
0.059500000000000004,1.744273696894877,1.0,3095.5053817057474,0.4879766651402273,1.3053563982806515,0.979816121385055,0.28631249526958485,0.7026705039192224
0.06,1.7436914585544938,1.0,3099.2238421061998,0.49084872905684956,1.3050617230789352,0.9800305966567007,0.28628804125928875,0.7032440851789257
0.0605,1.7431092202141103,1.0,3102.906757384949,0.49370467910139665,1.3047673699330304,0.980240272805296,0.28626358724899265,0.7038164866840031
0.061,1.742526981873727,1.0,3106.555226689172,0.49654460470936734,1.3044733289048072,0.98044529438548,0.28623913323869654,0.7043877295459985
0.0615,1.7419447435333437,1.0,3110.1703525687644,0.49936859531626054,1.3041795900561348,0.9806458004768686,0.28621467922840044,0.7049578348000056
0.062,1.7413625051929604,1.0,3113.753240908313,0.502176740357575,1.3038861434488829,0.9808419249329776,0.28619022521810433,0.7055268234048628
0.0625,1.7407802668525771,1.0,3117.30500086185,0.5049691292688095,1.3035929791449214,0.981033796617013,0.28616577120780823,0.7060947162433396
0.063,1.7401980285121936,1.0,3120.826744789489,0.5077458514854629,1.3033000872061198,0.981221539625317,0.2861413171975121,0.7066615341223219
0.0635,1.7396157901718103,1.0,3124.319588196345,0.5105069964430342,1.3030074576943478,0.9814052734992004,0.286116863187216,0.7072272977729849
0.064,1.739033551831427,1.0,3127.7846496735156,0.513252653577022,1.302715080671475,0.9815851134258463,0.2860924091769199,0.7077920278509644
0.0645,1.7384513134910438,1.0,3131.223050841524,0.5159829123229253,1.3024229461993708,0.9817611704289303,0.28606795516662387,0.7083557449365194
0.065,1.7378690751506605,1.0,3134.6356858303106,0.5186978564145986,1.3021310462946902,0.9819335512539785,0.2860435011563277,0.7089184657680987
0.0655,1.7372868368102772,1.0,3138.020892827188,0.5213975128721128,1.3018393946622273,0.9821023560672413,0.28601904714603166,0.7094801652740439
0.066,1.7367045984698937,1.0,3141.382753321635,0.5240820544958458,1.3015479563186878,0.9822676889633668,0.2859945931357355,0.7100409121174196
0.0665,1.7361223601295104,1.0,3144.7217257241387,0.5267515607125749,1.3012567270398179,0.9824296455959166,0.28597013912543945,0.710600715603497
0.067,1.735540121789127,1.0,3148.0382697991154,0.5294061109490773,1.3009657026013632,0.9825883183026656,0.28594568511514334,0.7111595850053183
0.0675,1.7349578834487438,1.0,3151.3328466460925,0.5320457846321304,1.3006748787790696,0.9827437962439013,0.28592123110484724,0.7117175295637493
0.068,1.7343756451083605,1.0,3154.6059186802645,0.5346706611885113,1.3003842513486834,0.9828961655340264,0.28589677709455114,0.7122745584875351
0.0685,1.733793406767977,1.0,3157.8579496143243,0.5372808200449972,1.3000938160859499,0.9830455093668262,0.28587232308425503,0.7128306809533549
0.069,1.7332111684275937,1.0,3161.089404439808,0.5398763406283656,1.2998035687666156,0.9831919081347523,0.2858478690739589,0.7133859061058712
0.0695,1.7326289300872104,1.0,3164.300749409751,0.5424573023653937,1.299513505166426,0.9833354395425462,0.2858234150636628,0.7139402430577849
0.07,1.7320466917468271,1.0,3167.492452021008,0.5450237846828586,1.299223621061127,0.9834761787155057,0.2857989610533667,0.7144937008898823
