Time [s],Phi [rad],STIM [ ],Fsee [N],Gamma [ ],Lcerel [ ],q [ ],Lmtc [m],fisomrel [ ]
0.0,1.8,1.0,18.09475173934775,0.00036148643190165214,1.379325476761363,0.005033852001010041,0.288653,0.541174051912515
0.0005,1.79999375,1.0,18.516428449252157,0.005968668087733206,1.3792758502499762,0.013945062890095606,0.2886527375,0.5412940989067526
0.001,1.799975,1.0,22.11885803897208,0.011544397887766311,1.3788874782739358,0.03746365225795127,0.28865195,0.5422330319107713
0.0015,1.79994375,1.0,32.13917241240432,0.017088852253051345,1.3779558203713391,0.07312563847879334,0.2886506375,0.544481498237972
0.002,1.7999,1.0,55.78207315866913,0.022602206612776298,1.3762268627137257,0.11769708392373361,0.2886488,0.5486395018258525
0.0025,1.79984375,1.0,100.72870416209426,0.028084635413576014,1.3737628081973363,0.16780957585471146,0.28864643749999996,0.5545324081901823
0.003,1.7997750000000001,1.0,165.5991337913776,0.03353631212458407,1.3710418624152179,0.2206134728850628,0.28864354999999997,0.5609946949472149
0.0035,1.79969375,1.0,242.89629999036003,0.038957409239369016,1.3684250319297935,0.2739251223275627,0.2886401375,0.5671651653301361
0.004,1.7996,1.0,326.9949215682279,0.04434809828583368,1.3660102969379702,0.3261209433580318,0.2886362,0.5728203524725093
0.0045000000000000005,1.7994937500000001,1.0,414.98035912031355,0.04970854983174216,1.3637891821714405,0.376075633282159,0.2886317375,0.5779892568081457
0.005,1.799375,1.0,505.23264664713827,0.05503893347593382,1.3617350441782454,0.4230917303776476,0.28862675,0.582741574659958
0.0055,1.79924375,1.0,596.6548284457573,0.06033941788750465,1.359824541592283,0.4668064265319909,0.2886212375,0.5871374338899983
0.006,1.7991000000000001,1.0,688.3821821174575,0.06561017077211072,1.358040049473809,0.5070990495513342,0.2886152,0.5912223309081391
0.006500000000000001,1.79894375,1.0,779.7043765085518,0.0708513588836293,1.3563680354548877,0.5440124050357534,0.2886086375,0.5950313243176782
0.007,1.798775,1.0,870.0362018076818,0.07606314812048516,1.3547976617528568,0.5776921440624716,0.28860155,0.5985925357611781
0.0075,1.79859375,1.0,958.8892276363217,0.08124570323146305,1.3533200658983178,0.6083428826883699,0.2885939375,0.6019289892653329
0.008,1.7984,1.0,1045.8891254669597,0.0863991884761395,1.3519273262922993,0.636197471042252,0.2885858,0.605061087400362
0.0085,1.79819375,1.0,1130.7160866489999,0.09152376665728967,1.350612862584937,0.6614972976528598,0.2885771375,0.6080058054527937
0.009000000000000001,1.797975,1.0,1213.1257341397747,0.09661959983471029,1.3493707111291264,0.6844792628756985,0.28856795,0.6107783998888026
0.0095,1.79774375,1.0,1292.9615480814045,0.10168684974747504,1.3481951087280941,0.705368115377286,0.2885582375,0.6133933873017561
0.01,1.7975,1.0,1370.085288408235,0.1067256763006056,1.347081229442378,0.7243728903212069,0.288548,0.6158629469667327
0.0105,1.79724375,1.0,1444.407522884603,0.11173623881720997,1.3460245701428468,0.7416848605270394,0.2885372375,0.618198331815874
0.011,1.796975,1.0,1515.8936417599439,0.11671869606743555,1.3450207538422456,0.7574771853952965,0.28852595000000003,0.6204103297771957
0.0115,1.79669375,1.0,1584.5298412078105,0.12167320605640224,1.3440658494909334,0.7719056794580187,0.2885141375,0.6225085816775585
0.012,1.7964,1.0,1650.3041710524872,0.12659992487245064,1.3431564847134485,0.7851099316598024,0.28850180000000003,0.624501361604301
0.0125,1.79609375,1.0,1713.2419179619524,0.13149900831709999,1.3422893354315433,0.7972143952118197,0.2884889375,0.6263967182711494
0.013000000000000001,1.7957750000000001,1.0,1773.3970258339318,0.136370611929602,1.3414611767467575,0.8083298342439885,0.28847555,0.6282023749193867
0.0135,1.79544375,1.0,1830.8289224833234,0.14121489055108052,1.3406690944949748,0.8185548090936187,0.2884616375,0.6299252807907332
0.014,1.7951000000000001,1.0,1885.5804324284816,0.14603199631962466,1.3399106703999568,0.8279770574007123,0.2884472,0.631571224962538
0.0145,1.79474375,1.0,1937.7180257411367,0.15082208137332354,1.3391834861854637,0.8366745277566613,0.2884322375,0.6331459269740924
0.015,1.794375,1.0,1987.3255721438293,0.15558529750790348,1.3384851683522314,0.8447165249186966,0.28841675,0.6346549451707958
0.0155,1.79399375,1.0,2034.49016698819,0.16032179587730536,1.3378135146562444,0.852164762886496,0.2884007375,0.6361034098073831
0.016,1.7936,1.0,2079.3025444588275,0.16503172742238562,1.33716646225868,0.8590742483171133,0.2883842,0.637496099260096
0.0165,1.7931937500000001,1.0,2121.827950790129,0.16971523981942022,1.3365423652654023,0.8654941529778011,0.2883671375,0.6388368507065325
0.017,1.792775,1.0,2162.1437195673543,0.17437248074468506,1.3359395777822758,0.8714683794910812,0.28834955,0.6401294645391145
0.0175,1.7923437500000001,1.0,2200.338258067164,0.1790035978744561,1.3353564539151646,0.8770361840470434,0.2883314375,0.6413777066882849
0.018000000000000002,1.7919,1.0,2236.4955638022752,0.18360873742902337,1.3347914936728613,0.8822327606837918,0.2883128,0.642584999248388
0.0185,1.79144375,1.0,2270.7146689239075,0.18818804726977875,1.3342431347666033,0.8870896619520968,0.2882936375,0.6437548688182215
0.019,1.790975,1.0,2303.0680926577143,0.1927416714173786,1.3337101583476982,0.8916353183649409,0.28827395,0.6448900835955171
0.0195,1.79049375,1.0,2333.625750215017,0.197269752856283,1.3331914353670056,0.8958953325984539,0.2882537375,0.6459931996112072
0.02,1.79,1.0,2362.463310715404,0.20177243457095215,1.3326858367753849,0.8998927790284882,0.288233,0.6470667538554272
0.0205,1.78949375,1.0,2389.661713202009,0.20624985954584613,1.332192233523695,0.903648487463285,0.2882117375,0.6481132652631978
0.021,1.788975,1.0,2415.291530726817,0.21070216866084823,1.331709643245606,0.9071813228325413,0.28818995000000003,0.6491349253120946
0.021500000000000002,1.78844375,1.0,2439.441008919415,0.21512950583464302,1.331236952920852,0.9105083436140328,0.2881676375,0.6501341869250932
0.022,1.7879,1.0,2462.1708856302134,0.21953201001246095,1.330773350920312,0.9136450821239298,0.2881448,0.6511128517887379
0.0225,1.78734375,1.0,2483.5390323580295,0.22390981920811687,1.330318082161879,0.916605658628769,0.28812143749999997,0.6520725911890886
0.023,1.786775,1.0,2503.606034820979,0.22826307143542557,1.3298703915634476,0.9194029193952153,0.28809755,0.6530150662301588
0.0235,1.78619375,1.0,2522.434965260731,0.2325919047082019,1.3294295240429117,0.9220485692659948,0.28807313749999996,0.6539419282170302
0.024,1.7856,1.0,2540.085963914931,0.23689645605882795,1.3289947735475207,0.9245532972742947,0.2880482,0.6548547161301517
0.0245,1.78499375,1.0,2556.6182351123207,0.24117686220800244,1.3285654616113576,0.9269268757887502,0.2880227375,0.6557549025386337
0.025,1.784375,1.0,2572.100374062392,0.2454332611552597,1.3281408385711897,0.9291782356836064,0.28799675,0.6566441009623611
0.025500000000000002,1.78374375,1.0,2586.5753451254873,0.24966578561960032,1.3277204100660853,0.9313156013357283,0.2879702375,0.6575233827363421
0.026000000000000002,1.7831000000000001,1.0,2600.0873721695443,0.2538745683200248,1.3273036817351125,0.9333465187412553,0.2879432,0.6583938135288272
0.0265,1.78244375,1.0,2612.6818334286895,0.25805974197553383,1.3268901592173399,0.9352779206244431,0.2879156375,0.6592564534657595
0.027,1.781775,1.0,2624.4051617815453,0.26222143930512787,1.3264793481518353,0.9371161845041337,0.28788755,0.6601123572396451
0.0275,1.7810937500000001,1.0,2635.30475044668,0.2663597930278075,1.3260707541776675,0.9388671845551146,0.2878589375,0.6609625742028289
0.028,1.7804,1.0,2645.4235374214327,0.2704749316873876,1.3256639321147352,0.9405363435258384,0.2878298,0.6618080462996465
0.0285,1.77969375,1.0,2654.8096236528886,0.2745669911710969,1.3252583961124562,0.942128665364698,0.2878001375,0.6626497951478079
0.029,1.778975,1.0,2663.4956828031927,0.2786360987073592,1.324853808790527,0.9436487931192741,0.28776995,0.6634885297011726
0.029500000000000002,1.7782437500000001,1.0,2671.5149055016886,0.28268238150950076,1.3244498329678873,0.9451010234442087,0.2877392375,0.6643249549971622
0.03,1.7775,1.0,2678.9009728491274,0.2867059667908476,1.3240461314634762,0.9464893368563206,0.287708,0.6651597725878684
0.0305,1.77674375,1.0,2685.688010904686,0.2907069817647259,1.323642367096233,0.947817425007187,0.2876762375,0.6659936805495765
0.031,1.775975,1.0,2691.910547693173,0.29468555364446186,1.323238202685097,0.9490887152806748,0.28764395,0.6668273734850386
0.0315,1.7751937500000001,1.0,2697.5968637292203,0.2986418053268102,1.3228333614765053,0.9503063991842864,0.2876111375,0.6676614181051661
0.032,1.7744,1.0,2702.7744505698843,0.30257586142747556,1.3224275766468512,0.9514734475188911,0.2875778,0.6684963578368588
0.0325,1.77359375,1.0,2707.4877747221526,0.3064878589678469,1.3220204288663955,0.9525926121349692,0.2875439375,0.6693330465328531
0.033,1.772775,1.0,2711.756688632874,0.3103779181511451,1.3216117259160536,0.9536664798492023,0.28750955,0.6701718678357693
0.0335,1.7719437500000002,1.0,2715.6012259727368,0.3142461591805911,1.3212012755767404,0.9546974640301183,0.2874746375,0.6710132033414378
0.034,1.7711000000000001,1.0,2719.041584614934,0.3180927022594057,1.3207888856293712,0.9556878182921659,0.2874392,0.6718574325786549
0.0345,1.7702437500000001,1.0,2722.098110433514,0.32191766759080986,1.3203743638548613,0.9566396489546967,0.2874032375,0.6727049329865846
0.035,1.7693750000000001,1.0,2724.7912819203734,0.3257211753780244,1.3199575180341256,0.9575549263902312,0.28736675,0.6735560798898028
0.035500000000000004,1.76849375,1.0,2727.1416956222306,0.32950334582427027,1.3195381559480792,0.9584354953726325,0.2873297375,0.6744112464709854
0.036000000000000004,1.7676,1.0,2729.1700523957497,0.33326429913276834,1.3191160853776376,0.9592830845237224,0.2872922,0.6752708037412383
0.0365,1.76669375,1.0,2730.8971444831054,0.3370041555067394,1.3186911141037154,0.9600993149462018,0.2872541375,0.6761351205080761
0.037,1.765775,1.0,2732.343843405501,0.34072303514940455,1.3182630499072283,0.9608857081213255,0.28721555,0.6770045633410366
0.0375,1.76484375,1.0,2733.5202693483257,0.3444210505600287,1.3178317988402573,0.961643701104049,0.2871764375,0.6778792973404536
0.038,1.7639,1.0,2734.4491421306893,0.3480983259995217,1.3173971529879045,0.9623746361840637,0.28713679999999997,0.6787597170764437
0.0385,1.76294375,1.0,2735.1494408451463,0.35175498064885263,1.316958938868738,0.9630797782349224,0.28709663750000003,0.6796461449974607
0.039,1.761975,1.0,2735.632228832513,0.3553911272878595,1.3165170552362158,0.9637603234045203,0.28705595,0.6805387555631197
0.0395,1.7609937500000001,1.0,2735.9086002416584,0.35900687869638004,1.3160714008437957,0.9644173984981647,0.2870147375,0.6814377218387775
0.04,1.76,1.0,2735.989675707735,0.36260234765425226,1.3156218744449355,0.9650520657360799,0.286973,0.6823432154715094
0.0405,1.7589937500000001,1.0,2735.886598258448,0.366177646941314,1.315168374793093,0.9656653271359024,0.2869307375,0.6832554066654354
0.041,1.757975,1.0,2735.610529447073,0.36973288933740317,1.3147108006417259,0.9662581285533631,0.28688795,0.68417446415639
0.0415,1.75694375,1.0,2735.172645713077,0.37326818762235764,1.3142490507442923,0.9668313634111112,0.2868446375,0.6851005551859413
0.042,1.7559,1.0,2734.58413497012,0.3767836545760153,1.31378302385425,0.9673858761427354,0.28680079999999997,0.686033845474755
0.0425,1.75484375,1.0,2733.856193421232,0.380279402978214,1.3133126187250568,0.9679224653764412,0.2867564375,0.6869744991953036
0.043000000000000003,1.753775,1.0,2732.9954731518765,0.3837555396377167,1.3128377754364697,0.9684418892916311,0.28671155,0.6879225964922224
0.043500000000000004,1.75269375,1.0,2732.0131125465937,0.38721217914482353,1.3123583933615106,0.9689448637703585,0.28666613750000003,0.6888782975019636
0.044,1.7516,1.0,2730.920784431007,0.39064943543977154,1.3118743670228958,0.96943206658309,0.2866202,0.6898417703892477
0.0445,1.75049375,1.0,2729.724580243565,0.39406741446953797,1.3113856416545884,0.9699041430078557,0.2865737375,0.6908130809035724
0.045,1.7493750000000001,1.0,2728.430592332828,0.3974662221810998,1.3108921624905525,0.9703617051271848,0.28652675,0.6917922936924359
0.0455,1.74824375,1.0,2727.0449128420796,0.40084596452143406,1.3103938747647517,0.9708053338551911,0.2864792375,0.692779472284833
0.046,1.7471,1.0,2725.5736326603687,0.4042067474375179,1.3098907237111495,0.9712355808219343,0.2864312,0.6937746790745537
0.0465,1.7459437500000001,1.0,2724.0228404397944,0.4075486768763283,1.30938265456371,0.9716529701263902,0.28638263750000004,0.6947779753032912
0.047,1.744775,1.0,2722.3986216793473,0.41087185878484234,1.3088696125563963,0.9720579999683533,0.28633355,0.6957894210435639
0.0475,1.74359375,1.0,2720.707057875621,0.41417639911003706,1.3083515429231727,0.9724511441687024,0.28628393750000003,0.6968090751814375
0.048,1.7424,1.0,2718.9542257392923,0.4174624037988896,1.3078283908980026,0.9728328535866443,0.2862338,0.6978369953990641
0.0485,1.74119375,1.0,2717.132643213254,0.4207299779225689,1.3073002251888084,0.9732035659268411,0.2861831375,0.6988729961699862
0.049,1.739975,1.0,2715.271288471949,0.4239792245821551,1.3067667823401214,0.9735636749991307,0.28613195,0.6999175422598487
0.0495,1.73874375,1.0,2713.3860632827204,0.4272102463809199,1.3062279177606104,0.9739135641310693,0.2860802375,0.7009708621938802
0.05,1.7375004379347694,1.0,2711.471772206928,0.430423144562357,1.3056838768414507,0.9742536247685728,0.2860280183932603,0.7020324216810612
0.0505,1.7362537467667738,1.0,2709.931390841614,0.4336180203699598,1.3051349049738172,0.9745842302285058,0.2859756573642045,0.7031016893068225
0.051000000000000004,1.735007055598778,1.0,2708.9049586467386,0.43679497504722187,1.3045812475488852,0.9749057367065211,0.2859232963351487,0.7041781366121325
0.051500000000000004,1.7337603644307824,1.0,2708.366447644327,0.43995410922006595,1.304023139408707,0.9752184834710422,0.28587093530609287,0.7052612586226847
0.052000000000000005,1.7325136732627868,1.0,2708.270398446038,0.44309552367374433,1.3034609940492068,0.9755228059633068,0.28581857427703705,0.7063502075595258
0.0525,1.7312669820947912,1.0,2708.5771504522904,0.4462193181202832,1.30289517314386,0.9758190212835597,0.28576621324798124,0.7074442413461449
0.053,1.7300202909267957,1.0,2709.2579163344485,0.4493255904305411,1.3023259399579312,0.9761074262057502,0.2857138522189254,0.7085428125910503
0.0535,1.7287735997587999,1.0,2710.2839758461364,0.4524144384753766,1.3017535577566848,0.9763883045472206,0.2856614911898696,0.7096453774910176
0.054,1.7275269085908043,1.0,2711.6266566738695,0.4554859601256482,1.3011782898053852,0.9766619278520033,0.2856091301608138,0.7107513958861716
0.0545,1.7262802174228087,1.0,2713.258907127557,0.4585402526891395,1.3006003848708458,0.9769285551015453,0.285556769131758,0.7118603591055465
0.055,1.7250335262548129,1.0,2715.1549919968134,0.46157741354553344,1.3000200798720407,0.9771884335886927,0.28550440810270217,0.7129717846733875
0.0555,1.7237868350868173,1.0,2717.2923295331407,0.46459753917463237,1.2994375830421683,0.9774417984308601,0.28545204707364635,0.714085248284007
0.056,1.7225401439188217,1.0,2719.653260204869,0.46760072418700943,1.2988530577751771,0.9776888721584682,0.28539968604459054,0.7152004140893706
0.0565,1.7212934527508261,1.0,2722.220122216683,0.47058706319323784,1.2982666674650163,0.9779298681254184,0.2853473250155347,0.7163169485947494
0.057,1.7200467615828305,1.0,2724.975244457483,0.47355665080389064,1.2976785755056346,0.9781649909665731,0.2852949639864789,0.7174345206790058
0.0575,1.7188000704148347,1.0,2727.9050959999154,0.47650957878029265,1.297088907503816,0.9783944346311256,0.28524260295742304,0.7185528732085114
0.058,1.7175533792468392,1.0,2730.992900428482,0.4794459417657443,1.296497818447232,0.9786183871898486,0.2851902419283672,0.7196716953317355
0.0585,1.7163066880788436,1.0,2734.216617842773,0.4823658389361979,1.2959055109063087,0.9788370322679907,0.2851378808993114,0.7207905886966723
0.059000000000000004,1.7150599969108478,1.0,2737.5675514915797,0.48526936033353374,1.2953120659688524,0.9790505387723479,0.2850855198702556,0.7219093867768118
0.059500000000000004,1.7138133057428522,1.0,2741.0369917737526,0.4881565959996324,1.2947175647226692,0.9792590690096541,0.2850331588411998,0.7230279242472555
0.06,1.7125666145748566,1.0,2744.6162142660673,0.4910276359763742,1.294122088255566,0.9794627789980511,0.28498079781214397,0.724146036990386
0.0605,1.711319923406861,1.0,2748.296477897313,0.4938825703056397,1.2935257176553485,0.9796618187615581,0.28492843678308816,0.7252635621011245
0.061,1.7100732322388654,1.0,2752.0690232675897,0.49672148902930924,1.2929285340098235,0.9798563326085884,0.28487607575403234,0.726380337891759
0.0615,1.7088265410708696,1.0,2755.9250711138325,0.4995444821892633,1.2923306184067975,0.9800464593954957,0.28482371472497653,0.7274962038963626
0.062,1.707579849902874,1.0,2759.8558209210682,0.5023516398273822,1.2917320519340765,0.9802323327760585,0.2847713536959207,0.7286110008747874
0.0625,1.7063331587348785,1.0,2763.8524496791756,0.5051430519855464,1.291132915679467,0.9804140814377554,0.2847189926668649,0.7297245708162383
0.063,1.7050864675668829,1.0,2767.912118461111,0.5079187994951471,1.2905332365034836,0.9805918258536286,0.2846666316378091,0.7308368574196775
0.0635,1.703839776398887,1.0,2772.023805116412,0.5106789801559448,1.2899331150157811,0.9807656871025983,0.2846142706087533,0.73194766842234
0.064,1.7025930852308915,1.0,2776.18033606501,0.513423684818259,1.2893326168546628,0.980935779594997,0.28456190957969746,0.7330568776276559
0.0645,1.701346394062896,1.0,2780.3784663914757,0.5161529976531344,1.2887317720896796,0.9811022113638519,0.28450954855064164,0.7341644253378614
0.065,1.7000997028949003,1.0,2784.6149419412345,0.5188670028316158,1.2881306107903823,0.9812650865878407,0.28445718752158583,0.735270252313652
0.0655,1.6988530117269045,1.0,2788.8864990995157,0.5215657845247482,1.2875291630263213,0.9814245057575552,0.28440482649252996,0.7363742997748188
0.066,1.697606320558909,1.0,2793.1898645905103,0.5242494269035762,1.2869274588670476,0.9815805658334459,0.28435246546347415,0.7374765094008249
0.0665,1.6963596293909133,1.0,2797.5217552960826,0.5269180141391449,1.2863255283821118,0.981733360395926,0.28430010443441833,0.7385768233313281
0.067,1.6951129382229178,1.0,2801.8788780950217,0.5295716304024989,1.2857234016410646,0.9818829797880726,0.2842477434053625,0.7396751841666419
0.0675,1.693866247054922,1.0,2806.257929722311,0.532210359864683,1.2851211087134566,0.9820295112513405,0.2841953823763067,0.7407715349681417
0.068,1.6926195558869264,1.0,2810.655596647978,0.5348342866967422,1.2845186796688388,0.982173039054678,0.2841430213472509,0.7418658192586118
0.0685,1.6913728647189308,1.0,2815.068554976721,0.5374434950697211,1.2839161445767615,0.9823136446174098,0.2840906603181951,0.7429579810225366
0.069,1.6901261735509352,1.0,2819.4934703668864,0.5400380691546647,1.2833135335067754,0.9824514066262268,0.28403829928913926,0.7440479647063307
0.0695,1.6888794823829394,1.0,2823.9315605064508,0.5426180722182711,1.282710835755979,0.9825863979416828,0.28398593826008345,0.7451357887313641
0.07,1.6876327912149438,1.0,2828.3767146052937,0.5451836099754714,1.2821081060938508,0.9827186946769317,0.28393357723102763,0.7462213535591218
0.07050000000000001,1.6863861000469482,1.0,2832.826464419822,0.5477347677878528,1.2815053666180238,0.9828483676889264,0.2838812162019718,0.7473046191494005
0.07100000000000001,1.6851394088789526,1.0,2837.27989744532,0.5502716230267085,1.2809026254868705,0.9829754844059171,0.283828855172916,0.7483855707735426
0.07150000000000001,1.6838927177109568,1.0,2841.736098303471,0.552794253063332,1.2802998908587628,0.9831001100764731,0.2837764941438602,0.7494641938283344
0.07200000000000001,1.6826460265429612,1.0,2846.1941487429294,0.5553027352690165,1.2796971708920726,0.983222307854821,0.2837241331148044,0.7505404738360038
0.0725,1.6813993353749657,1.0,2850.6531276409023,0.5577971470150555,1.2790944737451724,0.9833421388823018,0.28367177208574856,0.7516143964442134
