Time [s],Phi [rad],STIM [ ],Fsee [N],Gamma [ ],Lcerel [ ],q [ ],Lmtc [m],fisomrel [ ]
0.0,1.8,1.0,17.967980145996982,2.9028348645709153e-05,1.3793396541317022,0.005000222699039779,0.288653,0.541139753836864
0.0005,1.79999375,1.0,18.28366123589497,0.005638074831367187,1.3793016195081518,0.012993424665762119,0.2886527375,0.5412317647911138
0.001,1.799975,1.0,21.639431134472957,0.011215658998148475,1.3789361527323445,0.03570779906005837,0.28865195,0.5421154086492643
0.0015,1.79994375,1.0,31.12032500342274,0.016761957328585476,1.3780418529095213,0.07073748689653625,0.2886506375,0.5442740990074486
0.002,1.7999,1.0,53.69337373912625,0.022277145310590225,1.376360935218315,0.11487862320346834,0.2886488,0.5483177501326381
0.0025,1.79984375,1.0,97.30614091505727,0.02776139744809071,1.3739261507237501,0.1647495861574946,0.28864643749999996,0.554142964939156
0.003,1.7997750000000001,1.0,161.20229093936632,0.03321488726856937,1.371205209420365,0.21746067302490737,0.28864354999999997,0.5606080755713742
0.0035,1.79969375,1.0,237.9594557606318,0.03863778732279455,1.3685762313456187,0.2707921358150169,0.2886401375,0.5668098268082302
0.004,1.7996,1.0,321.76072730837245,0.044030269195566324,1.3661483084043633,0.32308936231962304,0.2886362,0.5724981385606609
0.0045000000000000005,1.7994937500000001,1.0,409.5722913037947,0.04939250351091142,1.363915666769265,0.37319926276472287,0.2886317375,0.5776957508924788
0.005,1.799375,1.0,499.7243255564028,0.054724659923208976,1.3618517384454771,0.4204016024934881,0.28862675,0.5824723194642412
0.0055,1.79924375,1.0,591.1041215178703,0.06002690716392571,1.3599327068285607,0.46431640977304883,0.2886212375,0.5868891790658972
0.006,1.7991000000000001,1.0,682.8322880757017,0.06529941298664736,1.3581407044529243,0.5048111131999238,0.2886152,0.590992461141464
0.006500000000000001,1.79894375,1.0,774.1803995669418,0.07054234402982774,1.3564621475654703,0.541920820215001,0.2886086375,0.594817402273638
0.007,1.798775,1.0,864.6048876300181,0.07575586684079799,1.3548852413652706,0.5757859585864357,0.28860155,0.5983943413938573
0.0075,1.79859375,1.0,953.5613536307984,0.08094014568185698,1.353401886304747,0.606609172376887,0.2885939375,0.6017446006257866
0.008,1.7984,1.0,1040.6585317288175,0.08609534463449728,1.3520042286318597,0.6346223459410605,0.2885858,0.6048884662796221
0.0085,1.79819375,1.0,1125.6144692357757,0.09122162715008911,1.35068499146307,0.660066396823291,0.2885771375,0.60784450498261
0.009000000000000001,1.797975,1.0,1208.173523500937,0.09631915525620703,1.3494383003557844,0.6831788201944331,0.28856795,0.610627787769326
0.0095,1.79774375,1.0,1288.138917189802,0.10138808979840054,1.3482588593072518,0.7041854803870785,0.2885582375,0.6132518077615174
0.01,1.7975,1.0,1365.4259008466365,0.1064285924973698,1.3471410584944008,0.7232960113200327,0.288548,0.6157305022556984
0.0105,1.79724375,1.0,1439.923100757353,0.11144082192953579,1.346080647362573,0.7407029064998996,0.2885372375,0.6180745711769846
0.011,1.796975,1.0,1511.5665742579854,0.11642493622168988,1.3450735687997424,0.7565805436988052,0.28852595000000003,0.6202941075121475
0.0115,1.79669375,1.0,1580.346480679005,0.12138109339164274,1.3441157895893128,0.7710856860177929,0.2885141375,0.6223989902912113
0.012,1.7964,1.0,1646.2821548631123,0.12630945068056076,1.3432035297753875,0.7843586744409797,0.28850180000000003,0.6243983965233251
0.0125,1.79609375,1.0,1709.3954353756433,0.1312101641470843,1.3423334910296891,0.7965248411198125,0.2884889375,0.6263003218093934
0.013000000000000001,1.7957750000000001,1.0,1769.709920025454,0.1360833881744256,1.3415027769933214,0.8076958610283231,0.28847555,0.6281117771232454
0.0135,1.79544375,1.0,1827.2781829750218,0.14092927694961363,1.3407085214312575,0.8179709942207193,0.2884616375,0.629839615510607
0.014,1.7951000000000001,1.0,1882.1719724335167,0.14574798406212136,1.3399479627235067,0.8274384583141082,0.2884472,0.6314903783167645
0.0145,1.79474375,1.0,1934.4738211515207,0.15053966304696012,1.3392184994185772,0.8361766894143468,0.2884322375,0.6330701838399515
0.015,1.794375,1.0,1984.2383364742834,0.15530446429094558,1.3385180680125797,0.8442555901647698,0.28841675,0.6345839210109391
0.0155,1.79399375,1.0,2031.5382214186025,0.16004253818089334,1.337844605001624,0.851737343133905,0.2884007375,0.6360364249722472
0.016,1.7936,1.0,2076.4620768761397,0.16475403507022265,1.3371960537441985,0.85867732485841,0.2883842,0.6374324660055473
0.0165,1.7931937500000001,1.0,2119.0869833884412,0.16943910364878234,1.3365706320551407,0.8651249920276168,0.2883671375,0.6387761786926119
0.017,1.792775,1.0,2159.543637292972,0.1740978942542956,1.3359661399071034,0.8711243787998407,0.28834955,0.6400725536859713
0.0175,1.7923437500000001,1.0,2197.882910028899,0.1787305527707823,1.3353813182543388,0.8767151226235333,0.2883314375,0.6413245260394831
0.018000000000000002,1.7919001195257567,1.0,2234.16980889824,0.1833372250822624,1.3348149080510987,0.8819327135271147,0.2883128050200818,0.6425350042944336
0.0185,1.7914518481506185,1.0,2268.8227394856726,0.18791805707275575,1.3342656502516352,0.8868089785898293,0.288293977622326,0.6437068720084549
0.019,1.7910035767754806,1.0,2302.1305867876545,0.1924731940622983,1.3337323419416638,0.8913725199574558,0.2882751502245702,0.6448428697134324
0.0195,1.7905553054003427,1.0,2334.1385034385435,0.19700278103999977,1.3332141942808478,0.8956491721281502,0.2882563228268144,0.6459448365107316
0.02,1.7901070340252048,1.0,2364.8864899340515,0.20150696107092764,1.3327105057687543,0.8996622319067485,0.2882374954290586,0.6470144111961089
0.0205,1.7896587626500668,1.0,2394.4172053631114,0.20598587582202932,1.3322205812345203,0.9034327246627769,0.2882186680313028,0.648053206008283
0.021,1.789210491274929,1.0,2422.776384779508,0.21043966696025218,1.3317437255072828,0.9069796564746732,0.288199840633547,0.6490628207479228
0.021500000000000002,1.788762219899791,1.0,2450.004536220423,0.2148684737933187,1.3312793210917655,0.9103202505848529,0.2881810132357912,0.6500446792633257
0.022,1.7883139485246529,1.0,2476.1575937231373,0.21927243969713414,1.3308266271428126,0.9134701029292682,0.28816218583803543,0.6510004552720359
0.0225,1.787865677149515,1.0,2501.284136855517,0.2236517056611661,1.3303849972975803,0.9164433964641128,0.2881433584402796,0.6519316121195085
0.023,1.787417405774377,1.0,2525.418826607013,0.22800640807489764,1.3299539376793454,0.9192530595957145,0.28812453104252383,0.6528392825570619
0.0235,1.786969134399239,1.0,2548.5980921520986,0.23233668332781182,1.3295329544113845,0.9219108699596439,0.28810570364476806,0.6537245916993124
0.024,1.7865208630241012,1.0,2570.8600178103306,0.23664266780939172,1.3291215536169743,0.9244275727513808,0.28808687624701224,0.6545886573493276
0.0245,1.7860725916489633,1.0,2592.2442354146265,0.24092449790912043,1.3287192414193916,0.9268129854669082,0.28806804884925646,0.6554325903082263
0.025,1.7856243202738253,1.0,2612.791822086782,0.24518231001648103,1.328325523941913,0.9290760907493958,0.2880492214515007,0.656257494669223
0.025500000000000002,1.7851760488986872,1.0,2632.5369918666015,0.24941623731768403,1.3279399833098493,0.93122512998699,0.28803039405374486,0.6570643091413768
0.026000000000000002,1.7847277775235493,1.0,2651.522460985252,0.2536264172591338,1.3275621337410366,0.9332676552567235,0.28801156665598904,0.6578541088616685
0.0265,1.7842795061484114,1.0,2669.785066319413,0.2578129846910947,1.3271915542071202,0.9352106136885505,0.28799273925823327,0.6586278279831923
0.027,1.7838312347732734,1.0,2687.351164498574,0.26197606977637616,1.3268279287846976,0.9370604098943217,0.2879739118604775,0.6593861765507164
0.0275,1.7833829633981355,1.0,2704.2478953725463,0.2661158026777876,1.3264709415503655,0.9388229424589009,0.28795508446272167,0.6601298607245467
0.028,1.7829346920229976,1.0,2720.503134407746,0.27023231355813865,1.326120276580721,0.9405036506300367,0.2879362570649659,0.6608595829174556
0.0285,1.7824864206478594,1.0,2736.1454472962964,0.2743257325802386,1.3257756179523612,0.9421075561350631,0.2879174296672101,0.6615760419252462
0.029,1.7820381492727215,1.0,2751.204046778238,0.2783961899068971,1.3254366497418828,0.9436393006861388,0.2878986022694543,0.6622799330509538
0.029500000000000002,1.7815898778975836,1.0,2765.70875167673,0.2824438157009235,1.3251030560258834,0.9451031796656012,0.2878797748716985,0.6629719482226764
0.03,1.7811416065224457,1.0,2779.676939342459,0.2864687328447599,1.324774638053826,0.9465031855089879,0.2878609474739427,0.6636525334088215
0.0305,1.7806933351473078,1.0,2793.147951836027,0.2904710788807228,1.3244510033497259,0.9478430005178976,0.2878421200761869,0.6643225332441205
0.031,1.7802450637721698,1.0,2806.1402966818564,0.2944509779418036,1.3241319514347476,0.9491260635489237,0.2878232926784311,0.664982391770097
0.0315,1.779796792397032,1.0,2818.6720758109345,0.29840855369504027,1.3238172885991557,0.9503555712067228,0.2878044652806753,0.6656325370034792
0.032,1.7793485210218938,1.0,2830.7617159235856,0.30234392980747077,1.3235068211332153,0.951534497272431,0.28778563788291955,0.666273395026409
0.0325,1.7789002496467559,1.0,2842.4279500553944,0.30625722994613314,1.3232003553271914,0.952665610977446,0.2877668104851637,0.6669053900394682
0.033,1.778451978271618,1.0,2853.689799975056,0.31014857777806537,1.3228976974713489,0.9537514935682173,0.28774798308740795,0.6675289444123127
0.0335,1.77800370689648,1.0,2864.5665594132706,0.3140180969703055,1.3225986538559529,0.954794553340178,0.2877291556896522,0.6681444787319104
0.034,1.777555435521342,1.0,2875.0777781245633,0.31786591118989155,1.3223030307712684,0.9557970392986183,0.28771032829189636,0.6687524118483891
0.0345,1.7771071641462042,1.0,2885.2374296044236,0.3216921384493195,1.3220106859366236,0.9567610577607445,0.2876915008941406,0.6693530553017384
0.035,1.7766588927710663,1.0,2895.065562495243,0.32549690466076986,1.3217214251035212,0.9576885756213539,0.2876726734963848,0.6699468259864777
0.035500000000000004,1.7762106213959281,1.0,2904.5815054278114,0.32928033504191284,1.321435062267182,0.9585814351969391,0.287653846098629,0.6705341222745307
0.036000000000000004,1.7757623500207902,1.0,2913.7964722682905,0.33304254633643515,1.321151484543153,0.9594413684597662,0.28763501870087316,0.671115191249136
0.0365,1.7753140786456523,1.0,2922.7218111236725,0.33678365528802323,1.3208705790469815,0.9602699997615606,0.2876161913031174,0.6716902790244095
0.037,1.7748658072705144,1.0,2931.3689975121442,0.3405037786403638,1.320592232894215,0.961068853740286,0.2875973639053616,0.6722596307649917
0.0375,1.7744175358953764,1.0,2939.7496278165186,0.3442030331371434,1.3203163332004006,0.9618393625611049,0.2875785365076058,0.6728234907048786
0.038,1.7739692645202385,1.0,2947.8754130199986,0.34788153552204865,1.320042767081086,0.9625828725543499,0.28755970910985,0.6733821021654394
0.0385,1.7735209931451004,1.0,2955.758172724159,0.3515394025387661,1.3197714216518177,0.9633006503068073,0.28754088171209424,0.6739357075726258
0.039,1.7730727217699624,1.0,2963.4098294496976,0.3551767509309824,1.3195021840281436,0.9639938882568133,0.2875220543143384,0.6744845484733619
0.0395,1.7726244503948245,1.0,2970.842403220054,0.3587936974423841,1.3192349413256108,0.9646637098385293,0.28750322691658264,0.6750288655511283
0.04,1.7721761790196866,1.0,2978.0608644195036,0.3623903470007388,1.3189696428096929,0.9653111775526519,0.2874843995188268,0.6755687722125541
0.0405,1.7717279076445487,1.0,2985.0817753513898,0.36596682733299984,1.318706137459419,0.965937289188929,0.28746557212107104,0.6761045852860268
0.041,1.7712796362694108,1.0,2991.9149246981233,0.36952325373252576,1.3184443339679623,0.9665429896167107,0.2874467447233152,0.676636499246495
0.0415,1.7708313648942728,1.0,2998.5667658476227,0.37305973547731824,1.3181841705429596,0.9671291729005587,0.28742791732555945,0.6771646480098497
0.042,1.7703830935191347,1.0,3005.0438021668933,0.37657638184537895,1.317925585392047,0.9676966842098695,0.2874090899278037,0.677689165029095
0.0425,1.7699348221439968,1.0,3011.352584797796,0.38007330211470963,1.3176685167228608,0.9682463229945197,0.28739026253004785,0.6782101833006937
0.043000000000000003,1.7694865507688589,1.0,3017.499710537059,0.3835506055633119,1.3174129027430375,0.9687788459230984,0.2873714351322921,0.6787278353706603
0.043500000000000004,1.769038279393721,1.0,3023.4918198007736,0.3870084014691875,1.3171586816602134,0.9692949696037082,0.2873526077345363,0.679242253340419
0.044,1.768590008018583,1.0,3029.335594673892,0.39044679911033814,1.316905791682025,0.9697953731054472,0.2873337803367805,0.6797535688724138
0.0445,1.768141736643445,1.0,3035.037757044456,0.3938659077647655,1.3166541710161086,0.970280700297022,0.2873149529390247,0.6802619131954752
0.045,1.7676934652683072,1.0,3040.605066821854,0.3972658367104712,1.3164037578701004,0.9707515620174296,0.28729612554126893,0.6807674171099454
0.0455,1.767245193893169,1.0,3046.044320240432,0.40064669522545704,1.3161544904516371,0.9712085380923042,0.2872772981435131,0.6812702109925564
0.046,1.766796922518031,1.0,3051.359837387404,0.4040085844409009,1.3159063285539023,0.9716521796796925,0.2872584707457573,0.6817703813124807
0.0465,1.7663486511428932,1.0,3056.555877013133,0.4073516084848373,1.3156592327085128,0.9720830110021546,0.2872396433480015,0.6822680127738296
0.047,1.7659003797677553,1.0,3061.643017551822,0.41067589296171036,1.3154131094094739,0.9725015294272006,0.28722081595024573,0.6827632985097171
0.0475,1.7654521083926173,1.0,3066.6246364722647,0.41398153904536245,1.31516792727048,0.9729082092499672,0.2872019885524899,0.6832563061863185
0.048,1.7650038370174794,1.0,3071.5041291642983,0.4172686479096358,1.314923654905226,0.9733035018904004,0.28718316115473413,0.6837471032561677
0.0485,1.7645555656423413,1.0,3076.2849082943003,0.4205373207283728,1.3146802609274066,0.9736878372083317,0.28716433375697836,0.6842357569600104
0.049,1.7641072942672034,1.0,3080.970403183467,0.4237876586754157,1.3144377139507168,0.9740616247312504,0.28714550635922254,0.6847223343285943
0.0495,1.7636590228920654,1.0,3085.5640592074465,0.4270197629246068,1.3141959825888516,0.9744252548013131,0.28712667896146676,0.6852069021843943
0.05,1.7632107515169275,1.0,3090.0693372174615,0.43023373464978854,1.3139550354555056,0.9747790996475941,0.28710785156371094,0.6856895271432788
0.0505,1.7627624801417896,1.0,3094.4897129843926,0.4334296750248031,1.3137148411643735,0.9751235143890772,0.28708902416595516,0.6861702756161093
0.051000000000000004,1.7623142087666517,1.0,3098.8286766629553,0.43660768522349286,1.3134753683291505,0.9754588379734498,0.28707019676819934,0.6866492138102789
0.051500000000000004,1.7618659373915138,1.0,3103.0897322797805,0.4397678664197001,1.3132365855635308,0.9757853940563401,0.28705136937044357,0.6871264077311889
0.052000000000000005,1.7614176660163756,1.0,3107.2763972415155,0.44291031978726714,1.3129984614812098,0.9761034918252693,0.2870325419726878,0.6876019231836595
0.0525,1.7609693946412377,1.0,3111.3922018658204,0.44603514650003634,1.3127609646958822,0.9764134267722506,0.28701371457493197,0.6880758257732816
0.053,1.7605211232660998,1.0,3115.4406889341667,0.44914244773184997,1.3125240638212425,0.9767154814186554,0.2869948871771762,0.6885481809077039
0.0535,1.7600728518909619,1.0,3119.420244704856,0.4522322898218511,1.3122877714170402,0.9770099251750685,0.2869760597794204,0.6890189662735282
0.054,1.759624580515824,1.0,3123.338225012379,0.4553048073378982,1.3120520238149356,0.9772970180577046,0.2869572323816646,0.6894883113297285
0.0545,1.759176309140686,1.0,3127.1983765444807,0.4583601078430577,1.3118167881732659,0.9775770080996575,0.2869384049839088,0.6899562838434588
0.055,1.758728037765548,1.0,3131.0022662091646,0.46139828333590616,1.3115820502462934,0.9778501324250999,0.286919577586153,0.6904229144270291
0.0555,1.75827976639041,1.0,3134.751466674273,0.4644194258150201,1.3113477957882793,0.9781166182233332,0.2869007501883972,0.6908882336026145
0.056,1.757831495015272,1.0,3138.447556211762,0.4674236272789759,1.3111140105534858,0.9783766832468371,0.2868819227906414,0.6913522718026963
0.0565,1.757383223640134,1.0,3142.092118547984,0.47041097972635004,1.3108806802961743,0.9786305362804031,0.2868630953928856,0.691815059370497
0.057,1.7569349522649962,1.0,3145.6867427171715,0.4733815751557191,1.3106477907706064,0.9788783775832517,0.28684426799512985,0.6922766265604003
0.0575,1.7564866808898583,1.0,3149.2330229202316,0.4763355055656594,1.3104153277310442,0.9791203993058973,0.286825440597374,0.692737003538356
0.058,1.7560384095147203,1.0,3152.732558387821,0.4792728629547475,1.3101832769317494,0.9793567858833951,0.28680661319961825,0.6931962203822757
0.0585,1.7555901381395822,1.0,3156.1869532477526,0.4821937393215599,1.3099516241269833,0.9795877144064854,0.2867877858018625,0.6936543070824148
0.059000000000000004,1.7551418667644443,1.0,3159.5978163971104,0.48509822666467306,1.309720355071008,0.9798133549720425,0.28676895840410666,0.6941112935417372
0.059500000000000004,1.7546935953893064,1.0,3162.966761378826,0.4879864169826634,1.3094894555180852,0.9800338710141386,0.2867501310063509,0.6945672095762729
0.06,1.7542453240141684,1.0,3166.295406262617,0.4908584022741074,1.3092589112224764,0.9802494196169343,0.28673130360859506,0.6950220849154607
0.0605,1.7537970526390305,1.0,3169.5853735307755,0.49371427453758154,1.3090287079384435,0.9804601518105326,0.2867124762108393,0.6954759492024751
0.061,1.7533487812638926,1.0,3172.838289967788,0.49655412577166236,1.3087988314202483,0.9806662128508419,0.28669364881308346,0.6959288319945443
0.0615,1.7529005098887547,1.0,3176.0557865554056,0.49937804797492624,1.3085692674221523,0.9808677424844326,0.2866748214153277,0.6963807627632534
0.062,1.7524522385136165,1.0,3179.239498371083,0.5021861331459497,1.3083400016984175,0.9810648751992999,0.2866559940175719,0.696831770894834
0.0625,1.7520039671384786,1.0,3182.390149667141,0.5049784587241413,1.308111027704332,0.9812577397839732,0.2866371666198161,0.6972818705579732
0.063,1.7515556957633407,1.0,3185.507425437301,0.507755093639015,1.3078823476572063,0.9814464600986373,0.2866183392220603,0.6977310586769361
0.0635,1.7511074243882028,1.0,3188.5952579964783,0.5105161756370745,1.3076539280555222,0.9816311586108083,0.28659951182430454,0.6981794022704324
0.064,1.7506591530130649,1.0,3191.6543264512957,0.5132617871514602,1.3074257628126054,0.9818119507185843,0.2865806844265487,0.6986269144103563
0.0645,1.750210881637927,1.0,3194.6853117344667,0.5159920106153125,1.3071978458417808,0.9819889476581005,0.28656185702879294,0.699073608131918
0.065,1.749762610262789,1.0,3197.6888965700996,0.5187069284617719,1.3069701710563737,0.9821622566838745,0.2865430296310371,0.6995194964337395
0.0655,1.7493143388876509,1.0,3200.66576544124,0.5214066231239787,1.3067427323697098,0.9823319812400823,0.28652420223328134,0.6999645922779483
0.066,1.748866067512513,1.0,3203.616604556931,0.5240911770350735,1.3065155236951143,0.9824982211232778,0.2865053748355255,0.7004089085902738
0.0665,1.748417796137375,1.0,3206.5421018216043,0.5267606726281966,1.3062885389459122,0.9826610726370458,0.28648654743776975,0.7008524582601352
0.067,1.747969524762237,1.0,3209.4429468036783,0.5294151923364884,1.3060617720354293,0.9828206287390385,0.286467720040014,0.70129525414073
0.0675,1.7475212533870992,1.0,3212.3198307060998,0.5320548185930893,1.3058352168769904,0.9829769791808246,0.28644889264225815,0.7017373090491206
0.068,1.7470729820119613,1.0,3215.1734463375724,0.5346796338311399,1.305608867383921,0.9831302106409481,0.2864300652445024,0.7021786357663169
0.0685,1.7466247106368231,1.0,3218.0044880837863,0.5372897204837805,1.3053827174695465,0.9832804068515725,0.2864112378467466,0.702619247037357
0.069,1.7461764392616852,1.0,3220.813651880608,0.5398851609841516,1.3051567610471921,0.9834276487190615,0.2863924104489908,0.7030591555713868
0.0695,1.7457281678865473,1.0,3223.6016351874864,0.5424660377653935,1.3049309920301833,0.9835720144388255,0.286373583051235,0.7034983740417358
