Time [s],Phi [rad],STIM [ ],Fsee [N],Gamma [ ],Lcerel [ ],q [ ],Lmtc [m],fisomrel [ ]
0.0,1.8,1.0,18.038001050820792,0.00027131394503269486,1.3793318172557134,0.005019113552460268,0.288653,0.5411587130659377
0.0005,1.79999375,1.0,18.43195945785453,0.00587900139720195,1.3792851828407093,0.013681879430545548,0.2886527375,0.5412715244817912
0.001,1.799975,1.0,21.967610150982072,0.011455234156464015,1.3789027764508697,0.03698327338856918,0.28865195,0.5421960650440762
0.0015,1.79994375,1.0,31.839142236579814,0.017000188659765596,1.3779810117600086,0.07247497298564141,0.2886506375,0.5444207740716844
0.002,1.7999,1.0,55.18838545999744,0.022514040352191147,1.3762647120518738,0.116930931723313,0.2886488,0.5485486813281903
0.0025,1.79984375,1.0,99.77416336806589,0.02799696369596186,1.3738080810442928,0.1669788934245648,0.28864643749999996,0.554424485159386
0.003,1.7997750000000001,1.0,164.3846829754648,0.0334491321760023,1.3710867614207,0.21975833566640485,0.28864354999999997,0.5608884422777309
0.0035,1.79969375,1.0,241.53925207543963,0.038870718301389065,1.3684664395222292,0.27307588341274136,0.2886401375,0.5670678665363884
0.004,1.7996,1.0,325.5599451736383,0.04426189361548121,1.366048022774528,0.32529956670754007,0.2886362,0.572732286424932
0.0045000000000000005,1.7994937500000001,1.0,413.50021363699636,0.04962282870133152,1.3638237176746908,0.37529657097535635,0.2886317375,0.5779091277339505
0.005,1.799375,1.0,503.7272908375206,0.054953693173458204,1.3617668718374092,0.4223632834633187,0.28862675,0.5826681455388252
0.0055,1.79924375,1.0,595.1388161991899,0.06025465571567058,1.3598540336205,0.466132288600119,0.2886212375,0.5870697528286226
0.006,1.7991000000000001,1.0,686.8678174738409,0.0655258840491688,1.3580674741858652,0.5064796916937283,0.2886152,0.5911597064099324
0.006500000000000001,1.79894375,1.0,778.2012245018805,0.07076754493921839,1.3563936115806072,0.54344620952244,0.2886086375,0.5949731939557757
0.007,1.798775,1.0,868.5532437442398,0.07597980431222442,1.3548215471664478,0.5771762174812086,0.28860155,0.598538487456659
0.0075,1.79859375,1.0,957.4323898940684,0.08116282691038315,1.353342415994275,0.6078736739574576,0.2885939375,0.6018786258269408
0.008,1.7984,1.0,1044.4641062325586,0.08631677702056989,1.3519482584157485,0.6357711426102179,0.2885858,0.6050141052236018
0.0085,1.79819375,1.0,1129.3273530917945,0.09144181748465763,1.3506324809554746,0.6611099959677914,0.2885771375,0.6079619365402065
0.009000000000000001,1.797975,1.0,1211.7778263450164,0.09653811031427882,1.3493890940848787,0.6841272666941534,0.28856795,0.6107374392045528
0.0095,1.79774375,1.0,1291.6537233907595,0.10160581728470167,1.3482123851566676,0.7050479666707503,0.2885582375,0.6133550217586243
0.01,1.7975,1.0,1368.8186983440453,0.10664509843172451,1.3470974830608171,0.724081383307744,0.288548,0.6158269682807582
0.0105,1.79724375,1.0,1443.1838745361067,0.11165611295350589,1.3460398630884722,0.7414190696011465,0.2885372375,0.6181645827605593
0.011,1.796975,1.0,1514.7066321281698,0.11663901941968481,1.3450352346336685,0.757234514033698,0.28852595000000003,0.6203784657566624
0.0115,1.79669375,1.0,1583.3840251787778,0.12159397641377341,1.3440795214451042,0.7716837351679572,0.2885141375,0.6224785807465181
0.012,1.7964,1.0,1649.2027974749337,0.1265211398697869,1.343169361648652,0.7849065830967454,0.28850180000000003,0.6244731799287523
0.0125,1.79609375,1.0,1712.184819052579,0.13142066544737427,1.342301465427726,0.7970277588389872,0.2884889375,0.6263702384120895
0.013000000000000001,1.7957750000000001,1.0,1772.3755428871732,0.13629270818504852,1.3414726974254145,0.8081582704914174,0.28847555,0.6281772860746534
0.0135,1.79544375,1.0,1829.8449539390747,0.14113742339595806,1.3406800165176753,0.8183968128154702,0.2884616375,0.6299015508466724
0.014,1.7951000000000001,1.0,1884.6457800894555,0.14595496388435286,1.3399208931742486,0.8278312515192415,0.2884472,0.6315490637232817
0.0145,1.79474375,1.0,1936.8337737051102,0.150745481319423,1.3391930266102374,0.8365397299412981,0.2884322375,0.6331252892187078
0.015,1.794375,1.0,1986.4857020878665,0.15550912737035863,1.338494116040746,0.8445917086239929,0.28841675,0.6346356294827615
0.0155,1.79399375,1.0,2033.6815945067096,0.16024605274059758,1.337822028421947,0.8520490364419703,0.2884007375,0.6360850673242384
0.016,1.7936,1.0,2078.522961396208,0.164956408774009,1.337174581802748,0.8589667798232214,0.2883842,0.6374786396241772
0.0165,1.7931937500000001,1.0,2121.082656213202,0.16964034368052108,1.336550049460765,0.8653941762301938,0.2883671375,0.6388203578059843
0.017,1.792775,1.0,2161.4344740914394,0.1742980048981095,1.3359468217631116,0.8713752202247846,0.28834955,0.6401139443471432
0.0175,1.7923437500000001,1.0,2199.663150732789,0.17892953986475002,1.3353632890769025,0.8769492488648831,0.2883314375,0.6413630878173531
0.018000000000000002,1.7919,1.0,2235.854550432896,0.183535095057048,1.3347979309405196,0.8821515124808301,0.2883128,0.6425712545852904
0.0185,1.79144375,1.0,2270.10265326273,0.18811481775029865,1.3342492343180297,0.8870136308835038,0.2882936375,0.6437418665746522
0.019,1.790975,1.0,2302.483974224449,0.19266885251428945,1.3337159388082294,0.8915640720246003,0.28827395,0.6448777812032593
0.0195,1.79049375,1.0,2333.068415960144,0.19719734234727765,1.3331969145201976,0.8958284813838067,0.2882537375,0.6459815566142224
0.02,1.79,1.0,2361.931645166597,0.2017004302475206,1.3326910315630132,0.8998299713137444,0.288233,0.647055731879905
0.0205,1.78949375,1.0,2389.154607814573,0.20617825921327565,1.3321971600457556,0.9035894053663499,0.2882117375,0.6481028279895875
0.021,1.788975,1.0,2414.8060031913387,0.21063096986584096,1.3317143350326435,0.9071256823390127,0.28818995000000003,0.6491249997890662
0.021500000000000002,1.78844375,1.0,2438.97816380182,0.21505870660503648,1.3312414033153124,0.9104558790481637,0.2881676375,0.650124785490123
0.022,1.7879,1.0,2461.729150398713,0.21946160795053385,1.3307775786752098,0.9135955572768543,0.2881448,0.6511039331816497
0.0225,1.78734375,1.0,2483.117267463,0.22383981199483127,1.3303221013723736,0.9165588578798485,0.28812143749999997,0.6520641241866688
0.023,1.786775,1.0,2503.2035465040008,0.2281934568304269,1.3298742116668416,0.9193586455642675,0.28809755,0.6530070295828437
0.0235,1.78619375,1.0,2522.0515167601857,0.23252268054981898,1.3294331498186516,0.922006641716574,0.28807313749999996,0.6539343105885264
0.024,1.7856,1.0,2539.7209432996096,0.23682762003592198,1.3289982130542772,0.9245135515628962,0.2880482,0.654847499384861
0.0245,1.78499375,1.0,2556.273190611813,0.24110841253827509,1.3285687023514408,0.9268891581681618,0.2880227375,0.655748111719038
0.025,1.784375,1.0,2571.772742978162,0.2453651955139455,1.3281439064793277,0.9291424117086551,0.28799675,0.6566376806137955
0.025500000000000002,1.78374375,1.0,2586.2631833082446,0.2495981017474214,1.3277233249260505,0.9312815467328763,0.2879702375,0.6575172904955815
0.026000000000000002,1.7831000000000001,1.0,2599.7893649998687,0.253807264023191,1.3273064571797222,0.9333141184332971,0.2879432,0.6583880200524831
0.0265,1.78244375,1.0,2612.397305304247,0.2579928151257424,1.3268928027284552,0.9352470678617412,0.2879156375,0.6592509423607629
0.027,1.781775,1.0,2624.134084246087,0.262154887839564,1.3264818610603626,0.9370867800894819,0.28788755,0.6601071249954149
0.0275,1.7810937500000001,1.0,2635.046885504483,0.2662936145241458,1.326073139652736,0.9388391371774313,0.2878589375,0.660957613510865
0.028,1.7804,1.0,2645.177045851415,0.2704091245804721,1.32566620800836,0.9405095714449055,0.2878298,0.6618033193923964
0.0285,1.77969375,1.0,2654.5743627428,0.27450155334957,1.325260564465934,0.9421030905612604,0.2878001375,0.6626452972044067
0.029,1.778975,1.0,2663.2713702273372,0.2785710280564538,1.3248558728592172,0.9436243435989861,0.28776995,0.6634842534084059
0.029500000000000002,1.7782437500000001,1.0,2671.3011407094814,0.28261767592613785,1.3244517970219685,0.9450776326847923,0.2877392375,0.6643208909732633
0.03,1.7775,1.0,2678.6972370319268,0.2866416241836365,1.3240480007879467,0.9464669433312621,0.287708,0.6651559093920119
0.0305,1.77674375,1.0,2685.493667063901,0.2906430000539641,1.323644147990911,0.9477959717564708,0.2876762375,0.6659900046914458
0.031,1.775975,1.0,2691.7248407947236,0.294621930762135,1.3232399024646202,0.9490681495234001,0.28764395,0.6668238694345116
0.0315,1.7751937500000001,1.0,2697.421423171834,0.2985785408330656,1.3228349655930343,0.9502866696255831,0.2876111375,0.6676581154035217
0.032,1.7744,1.0,2702.6099633779554,0.30251295391111144,1.322429079169994,0.9514545071427286,0.2875778,0.6684932681938449
0.0325,1.77359375,1.0,2707.3317626289004,0.3064253049059118,1.322021852730843,0.9525744199465717,0.2875439375,0.669330122333531
0.033,1.772775,1.0,2711.6072187756813,0.3103157143944533,1.3216130889969218,0.9536489971575755,0.28750955,0.6701690720212312
0.0335,1.7719437500000002,1.0,2715.4569138333645,0.3141843029537226,1.3212025906895712,0.9546806542602281,0.2874746375,0.6710105093568488
0.034,1.7711000000000001,1.0,2718.9015964446526,0.31803119116070644,1.3207901605301322,0.9556716468146894,0.2874392,0.6718548243209568
0.0345,1.7702437500000001,1.0,2721.9621652068486,0.32185649959239143,1.3203756012399455,0.9566240829314782,0.2874032375,0.6727024047517329
0.035,1.7693750000000001,1.0,2724.659652861087,0.32566034882576417,1.3199587155403518,0.9575399346337962,0.28736675,0.673553636319414
0.035500000000000004,1.76849375,1.0,2727.015211345142,0.3294428594378114,1.3195393061526919,0.9584210482183092,0.2873297375,0.6744089024982661
0.036000000000000004,1.7676,1.0,2729.0500977083716,0.33320415200551967,1.3191171757983065,0.9592691537130738,0.2872922,0.675268584536074
0.0365,1.76669375,1.0,2730.7856608902457,0.3369443471058757,1.3186921271985366,0.9600858735206279,0.2872541375,0.6761330614211474
0.037,1.765775,1.0,2732.2343377147895,0.3406635585311359,1.318264044764418,0.9608727369701111,0.28721555,0.6770025440376037
0.0375,1.76484375,1.0,2733.418469904127,0.34436191008957684,1.3178327234866487,0.9616311738842018,0.2871764375,0.6778774230901132
0.038,1.7639,1.0,2734.358863607294,0.348039522816239,1.317397972849389,0.9623625290564847,0.28713679999999997,0.6787580574971255
0.0385,1.76294375,1.0,2735.0672261085842,0.3516965101119447,1.3169596854030632,0.963068073791054,0.28709663750000003,0.6796446359349211
0.039,1.761975,1.0,2735.5553014185252,0.35533298537751606,1.3165177536980959,0.9637490048282302,0.28705595,0.6805373456438506
0.0395,1.7609937500000001,1.0,2735.8348653798225,0.35894906201377524,1.3160720702849118,0.9644064495185014,0.2870147375,0.6814363724037302
0.04,1.76,1.0,2735.9177210281982,0.3625448534215445,1.3156225277139353,0.9650414705841454,0.286973,0.6823419005085019
0.0405,1.7589937500000001,1.0,2735.8156942096675,0.3661204730016461,1.315169018535591,0.9656550705054224,0.2869307375,0.6832541127401539
0.041,1.757975,1.0,2735.5406294536056,0.3696760341549021,1.3147114353003035,0.9662481955645832,0.28688795,0.6841731903419097
0.0415,1.75694375,1.0,2735.104386101944,0.3732116502821347,1.3142496705584972,0.9668217395776891,0.2868446375,0.6850993129906761
0.042,1.7559,1.0,2734.518834694359,0.3767274347841662,1.3137836168605965,0.9673765473413342,0.28680079999999997,0.6860326587687575
0.0425,1.75484375,1.0,2733.791478205328,0.3802234953714856,1.3133132064965507,0.9679134201735717,0.2867564375,0.686973324728475
0.043000000000000003,1.753775,1.0,2732.93354279618,0.38369994674490226,1.312838338003086,0.9684331147619764,0.28671155,0.6879214740926881
0.043500000000000004,1.75269375,1.0,2731.9573436200503,0.38715690381610446,1.31235890004936,0.9689363468350167,0.28666613750000003,0.6888772881376081
0.044,1.7516,1.0,2730.869342642992,0.3905944731415069,1.3118748344898625,0.9694237974279156,0.2866202,0.6898408405992374
0.0445,1.75049375,1.0,2729.6760038905804,0.39401276127752477,1.3113860831790816,0.9698961121700814,0.2865737375,0.6908122040892541
0.045,1.7493750000000001,1.0,2728.3837921727313,0.3974118747805728,1.310892587971506,0.9703539034695485,0.28652675,0.6917914500777402
0.0455,1.74824375,1.0,2726.9991718846004,0.40079192020706605,1.310394290721625,0.9707977525420737,0.2864792375,0.6927786488756993
0.046,1.7471,1.0,2725.5286058823367,0.4041530041134193,1.3098911332839271,0.9712282112973285,0.2864312,0.6937738696173574
0.0465,1.7459437500000001,1.0,2723.9785544335073,0.4074952330560475,1.3093830575129008,0.971645804093538,0.28638263750000004,0.6947771802422484
0.047,1.744775,1.0,2722.355474242411,0.4108187135913657,1.3088700052630353,0.9720510293709043,0.28633355,0.6957886474770808
0.0475,1.74359375,1.0,2720.665817551046,0.4141235522757886,1.308351918388819,0.9724443611732605,0.28628393750000003,0.6968083368173951
0.048,1.7424,1.0,2718.9125453149486,0.4174098470344268,1.3078287704927778,0.97282625171674,0.2862338,0.6978362501814565
0.0485,1.74119375,1.0,2717.1015760533382,0.4206777056347146,1.3073005082202949,0.9731971308773313,0.2861831375,0.6988724414781521
0.049,1.739975,1.0,2715.2423008376213,0.4239272438900837,1.3067670465169352,0.9735574068770874,0.28613195,0.6999170254186113
0.0495,1.73874375,1.0,2713.3377661339846,0.42715856106264877,1.3062283580670206,0.9739074706327124,0.2860802375,0.7009700022818132
0.05,1.7375,1.0,2711.391015420078,0.43037175641452474,1.3056844155548728,0.9742476948421649,0.286028,0.7020313714504969
0.0505,1.73624375,1.0,2709.4050889396876,0.4335669292078263,1.3051351916648135,0.9745784349943858,0.2859752375,0.703101131402033
0.051000000000000004,1.734975,1.0,2707.383023474077,0.43674417870466825,1.304580659081165,0.9749000303143547,0.28592195,0.7041792796992445
0.051500000000000004,1.73369375,1.0,2705.3278521302723,0.43990360416716545,1.304020790488249,0.9752128046481492,0.2858681375,0.7052658129811868
0.052000000000000005,1.7324,1.0,2703.242604145195,0.44304530485743254,1.3034555585703873,0.9755170672923136,0.2858138,0.7063607269538719
0.0525,1.73109375,1.0,2701.1303047069982,0.4461693800375844,1.302884936011902,0.9758131137714944,0.28575893750000003,0.7074640163809505
0.053,1.729775,1.0,2698.993974792323,0.44927592896973584,1.3023088954971147,0.976101226567994,0.28570355000000003,0.708575675074345
0.0535,1.72844375,1.0,2696.8366310208817,0.4523650509160016,1.3017274097103473,0.9763816758065994,0.2856476375,0.7096956958848349
0.054,1.7271,1.0,2694.6612855257345,0.45543684513849647,1.3011404513359217,0.9766547198977885,0.2855912,0.7108240706925937
0.0545,1.7257437500000001,1.0,2692.470945840603,0.45849141089933526,1.30054799305816,0.9769206061421758,0.2855342375,0.7119607903976792
0.055,1.724375,1.0,2690.264760973932,0.46152882371239506,1.2999500428457431,0.9771795711232438,0.28547675,0.7131057774133829
0.0555,1.72299375,1.0,2688.048889246891,0.4645492061986539,1.2993465444804049,0.9774318421444309,0.2854187375,0.7142590762361001
0.056,1.7216,1.0,2685.825967960952,0.4675526590324583,1.2987374739159236,0.9776776367654084,0.2853602,0.7154206686171328
0.0565,1.72019375,1.0,2683.59712882612,0.47053927334868767,1.2981228208684763,0.9779171634260112,0.28530113749999997,0.7165905091754541
0.057,1.718775,1.0,2681.3635017189185,0.4735091402822217,1.2975025750542386,0.9781506219939906,0.28524155,0.7177685517732689
0.0575,1.71734375,1.0,2679.1262146684285,0.4764623509679399,1.2968767261893877,0.9783782041846667,0.2851814375,0.718954749512345
0.058,1.7159,1.0,2676.88639384626,0.47939899654072166,1.2962452639900992,0.9786000939567725,0.2851208,0.7201490547303457
0.0585,1.71444375,1.0,2674.64516355783,0.48231916813544673,1.2956081781725501,0.9788164678860187,0.2850596375,0.7213514189971488
0.059000000000000004,1.7129750000000001,1.0,2672.403646236312,0.48522295688699446,1.2949654584529167,0.9790274955177996,0.28499795,0.722561793111163
0.059500000000000004,1.71149375,1.0,2670.162962438927,0.48811045393024455,1.294317094547375,0.9792333397003579,0.2849357375,0.7237801270956363
0.06,1.71,1.0,2667.92423084539,0.4909817504000764,1.293663076172102,0.9794341568996378,0.284873,0.7250063701949561
0.0605,1.7084937500000001,1.0,2665.6885682591796,0.4938369374313697,1.2930033930432736,0.9796300974969627,0.2848097375,0.7262404708709469
0.061,1.7069750000000001,1.0,2663.4570896104797,0.4966761061590038,1.2923380348770666,0.9798213060706031,0.28474595,0.7274823767991551
0.0615,1.7054437500000001,1.0,2661.2309079619467,0.4994993477178585,1.291666991389657,0.9800079216622211,0.2846816375,0.7287320348651332
0.062,1.7039,1.0,2659.0111345169885,0.502306753242813,1.2909902522972214,0.9801900780291093,0.2846168,0.7299893911607125
0.0625,1.70234375,1.0,2656.798878629571,0.5050984138687472,1.2903078073159364,0.9803679038830901,0.2845514375,0.7312543909802716
0.063,1.7007750000000001,1.0,2654.5951419614075,0.5078744191960061,1.2896196471376482,0.98054152305229,0.28448555,0.732526977014873
0.0635,1.69919375,1.0,2652.399113159168,0.5106348546561364,1.2889257791564432,0.9807110553107875,0.28441913750000003,0.7338070603917162
0.064,1.6976,1.0,2650.211111122616,0.5133798067571038,1.288226200352789,0.9808766155761739,0.2843522,0.7350945708870982
0.0645,1.69599375,1.0,2648.0319112217903,0.5161093616281658,1.28752090348994,0.981038314325271,0.2842847375,0.7363894453326806
0.065,1.694375,1.0,2645.8622875694296,0.5188236053985795,1.2868098813311515,0.9811962580240586,0.28421675,0.7376916198048814
0.0655,1.69274375,1.0,2643.7030130330236,0.5215226241976026,1.286093126639678,0.9813505493006207,0.2841482375,0.7390010296222358
0.066,1.6911,1.0,2641.552211660674,0.5242065038355654,1.2853706566416818,0.981501288289852,0.2840792,0.7403175648210949
0.0665,1.6894437500000001,1.0,2639.4140088349113,0.5268753292469041,1.2846424331187372,0.9816485688100053,0.2840096375,0.7416412157788432
0.067,1.687775,1.0,2637.2880909625565,0.5295291845671243,1.283908458838983,0.9817924832908587,0.28393955,0.7429718973203874
0.0675,1.68609375,1.0,2635.1731100489237,0.53216815375268,1.2831687461448442,0.9819331213751143,0.2838689375,0.7443095063990969
0.068,1.6844000000000001,1.0,2633.0684312030644,0.5347923205273177,1.282423300799674,0.982070569262666,0.2837978,0.7456539514203345
0.0685,1.68269375,1.0,2630.971857886002,0.5374017678504337,1.281672143034672,0.9822049108149855,0.2837261375,0.7470051142801507
0.069,1.680975,1.0,2628.8878905483734,0.539996578112958,1.280915231086565,0.9823362240673578,0.28365395,0.748362987702748
0.0695,1.67924375,1.0,2626.8149182838465,0.5425768335143404,1.2801525797516722,0.9824645870171417,0.28358123749999997,0.7497274619211829
0.07,1.6775005390511724,1.0,2624.78748270561,0.5451426158995345,1.279384112188161,0.9825900707448995,0.28350802264014924,0.7510985901046972
0.07050000000000001,1.6757542100563896,1.0,2623.203164478768,0.5476940061750958,1.2786101349941517,0.9827127615674659,0.28343467682236834,0.752475741959632
0.07100000000000001,1.6740078810616068,1.0,2622.1745980328224,0.5502310850717879,1.2778310080458464,0.9828327454682433,0.2833613310045875,0.7538581982405257
0.07150000000000001,1.6722615520668243,1.0,2621.656606041718,0.5527539331008795,1.2770471473171865,0.9829501082636642,0.28328798518680665,0.7552451472047487
0.07200000000000001,1.6705152230720415,1.0,2621.606704774615,0.5552626299685264,1.276258945430928,0.9830649320026005,0.28321463936902574,0.756635826114131
0.0725,1.668768894077259,1.0,2621.9868358642534,0.5577572549156766,1.2754667552192407,0.9831772943919194,0.28314129355124484,0.7580295496459916
0.073,1.6670225650824761,1.0,2622.77005292063,0.5602378846242295,1.2746708274151126,0.9832872660423874,0.283067947733464,0.759425818134877
0.0735,1.6652762360876936,1.0,2623.9035095107183,0.5627046022092513,1.2738716536144794,0.9833949265013493,0.28299460191568315,0.7608237160282865
0.074,1.6635299070929108,1.0,2625.3606126223535,0.565157485021656,1.2730694823875608,0.9835003418880185,0.28292125609790225,0.7622227608054517
0.0745,1.6617835780981283,1.0,2627.1191218782456,0.5675966094138525,1.2722645222869051,0.9836035745194722,0.28284791028012135,0.7636225443363627
0.075,1.6600372491033455,1.0,2629.1568211709896,0.57002205173825,1.271456981865061,0.9837046848493131,0.2827745644623405,0.7650226626170662
