Time [s],Phi [rad],STIM [ ],Fsee [N],Gamma [ ],Lcerel [ ],q [ ],Lmtc [m],fisomrel [ ]
0.0,1.8,1.0,17.96698987406793,2.042812328941477e-05,1.379339765074267,0.005000110594860668,0.288653,0.5411394854381377
0.0005,1.79999375,1.0,18.279854359394896,0.005629522846471224,1.3793020423200413,0.012969491044534334,0.2886527375,0.5412307420020588
0.001,1.799975,1.0,21.629258307719027,0.011207154983125989,1.3789371913534816,0.03566294064007078,0.28865195,0.5421128986260679
0.0015,1.79994375,1.0,31.096527639699165,0.016753501014359906,1.3780438790857388,0.07067611276936936,0.2886506375,0.5442692139215796
0.002,1.7999,1.0,53.642360288609304,0.022268736429608287,1.3763642420715678,0.11480595445025665,0.2886488,0.5483098127866528
0.0025,1.79984375,1.0,97.22052224685724,0.02775303573427712,1.3739302734195036,0.16467053718610863,0.28864643749999996,0.5541331333559162
0.003,1.7997750000000001,1.0,161.09093886968307,0.03320657245735986,1.3712093749965777,0.2173791252294368,0.28864354999999997,0.5605982140135528
0.0035,1.79969375,1.0,237.83367599732392,0.038629519151106746,1.368580103958347,0.2707110285193546,0.2886401375,0.5668007237437951
0.004,1.7996,1.0,321.6269427859739,0.04402204740178712,1.3661518505946184,0.32301082873684483,0.2886362,0.5724898670476284
0.0045000000000000005,1.7994937500000001,1.0,409.4337840971416,0.0493843278348795,1.363918917127182,0.3731247140050785,0.2886317375,0.5776882071332248
0.005,1.799375,1.0,499.58303357858557,0.054716530106183735,1.3618547401665813,0.4203318565480373,0.28862675,0.5824653922798979
0.0055,1.79924375,1.0,590.9615762421247,0.06001882294886569,1.3599354912463373,0.46425183616349674,0.2886212375,0.5868827874402356
0.006,1.7991000000000001,1.0,682.6895792636325,0.0652913741176895,1.3581432980579429,0.5047517707184392,0.2886152,0.5909865371689398
0.006500000000000001,1.79894375,1.0,774.0539095902626,0.07053435044159884,1.3564643065033442,0.5418663952046179,0.2886086375,0.5948124942254143
0.007,1.798775,1.0,864.4591631555646,0.0757479178212721,1.354887594947267,0.5757365680362517,0.28860155,0.5983890145170427
0.0075,1.79859375,1.0,953.4147996058197,0.08093224119760196,1.3534041401676506,0.6065642826911319,0.2885939375,0.6017395207664653
0.008,1.7984,1.0,1040.5286759249934,0.08608748463065008,1.3520061402809178,0.6345814391838231,0.2885858,0.6048841747593457
0.0085,1.79819375,1.0,1125.486987841466,0.09121381121914511,1.350686795941298,0.6600292423655494,0.2885771375,0.6078404692360535
0.009000000000000001,1.797975,1.0,1208.0426382623402,0.09631138297686737,1.3494400885930977,0.6831451076453814,0.28856795,0.6106238025639287
0.0095,1.79774375,1.0,1288.0171078202313,0.1013803611245681,1.3482604710546962,0.7041547824234581,0.2885582375,0.6132482279998761
0.01,1.7975,1.0,1365.3185642671103,0.10642090744111893,1.3471424379559405,0.7232679915504188,0.288548,0.6157274482461927
0.0105,1.79724375,1.0,1439.8228045064996,0.11143318008159322,1.3460819025540751,0.740677340226651,0.2885372375,0.6180718007798203
0.011,1.796975,1.0,1511.4675696121826,0.11641733720106434,1.3450747781063455,0.7565572135230489,0.28852595000000003,0.6202914461570678
0.0115,1.79669375,1.0,1580.2470086488283,0.1213735369546057,1.3441169778699957,0.7710643723346977,0.2885141375,0.6223963824669033
0.012,1.7964,1.0,1646.1816011229712,0.12630193646847226,1.3432047066768527,0.7843391739124624,0.28850180000000003,0.6243958205193098
0.0125,1.79609375,1.0,1709.298147328296,0.13120269210021898,1.3423346084891439,0.7965069489232003,0.2884889375,0.6262978821128335
0.013000000000000001,1.7957750000000001,1.0,1769.6177109660803,0.13607595811679404,1.3415038179090824,0.8076794074234486,0.28847555,0.6281095100558685
0.0135,1.79544375,1.0,1827.1917768744613,0.14092188872798111,1.340709481350249,0.8179558334167099,0.2884616375,0.6298375297131518
0.014,1.7951000000000001,1.0,1882.0806420890383,0.1457406369954689,1.3399489624428411,0.8274245064569405,0.2884472,0.6314882108865938
0.0145,1.79474375,1.0,1934.3837275934238,0.15053235711827445,1.3392194721764297,0.8361638058340543,0.2884322375,0.6330680793888535
0.015,1.794375,1.0,1984.1553248816435,0.1552971994804012,1.3385189529931754,0.8442436518767059,0.28841675,0.6345820104094526
0.0155,1.79399375,1.0,2031.4641106343463,0.16003531425749098,1.3378453858383812,0.8517262551207885,0.2884007375,0.6360347425628678
0.016,1.7936,1.0,2076.3951080780826,0.16474685162518557,1.3371967516573497,0.8586670141953994,0.2883842,0.6374309651522054
0.0165,1.7931937500000001,1.0,2119.0311637272252,0.1694319605625789,1.336571207896749,0.865115375650953,0.2883671375,0.6387749426496279
0.017,1.792775,1.0,2159.4765432966988,0.17409079098161553,1.3359668255427988,0.871115461650559,0.28834955,0.6400710846131844
0.0175,1.7923437500000001,1.0,2197.804299187184,0.1787234893101871,1.3353821145446505,0.8767068441341979,0.2883314375,0.6413228228429813
0.018000000000000002,1.7919,1.0,2234.088518567394,0.18333020132063213,1.3348156707897303,0.8819249796261307,0.2883128,0.6425333756174201
0.0185,1.79144375,1.0,2268.4118033093305,0.18791107278528899,1.334266090165464,0.8868016666618408,0.2882936375,0.6437059342011924
0.019,1.790975,1.0,2300.8577200873183,0.19246624866976328,1.3337320361509588,0.8913654858154086,0.28827395,0.6448435205565533
0.0195,1.79049375,1.0,2331.5157577832924,0.1969958743257764,1.333212182155221,0.8956421550305459,0.2882537375,0.6459491124469255
0.02,1.79,1.0,2360.465273509999,0.20150009345272354,1.3327053621901135,0.8996548883052056,0.288233,0.6470253251592648
0.0205,1.78949375,1.0,2387.770230172659,0.20597904725019964,1.3322106119185917,0.9034246837084327,0.2882117375,0.6480743282164377
0.021,1.788975,1.0,2413.4990317776087,0.21043287691779958,1.3317269670036118,0.9069705245747164,0.28818995000000003,0.64909827602865
0.021500000000000002,1.78844375,1.0,2437.72415498337,0.2148617236551183,1.3312534631081288,0.9103096004443286,0.2881676375,0.6500993086060957
0.022,1.7879031383785111,1.0,2460.6643203775393,0.21926572711784034,1.3307891888309016,0.9134575111990422,0.2881449318118975,0.6510794405376089
0.0225,1.7873619961131413,1.0,2482.7778729701,0.22364502888280202,1.3303335760617327,0.916428497431441,0.2881222038367519,0.6520399506577406
0.023,1.7868208538477715,1.0,2504.1151458152935,0.2279997676832704,1.3298862681103825,0.9192355516748046,0.2880994758616064,0.6529816648986124
0.0235,1.7862797115824016,1.0,2524.6998618707516,0.23233007975708353,1.3294469348284692,0.921890512106884,0.28807674788646087,0.653905347997852
0.024,1.7857385693170318,1.0,2544.5567498063124,0.23663610134207938,1.3290152460676121,0.9244041778929305,0.28805401991131535,0.6548117597419281
0.0245,1.785197427051662,1.0,2563.711486839015,0.24091796867609597,1.3285908716794295,0.9267864146496329,0.28803129193616983,0.6557016551305891
0.025,1.7846562847862921,1.0,2582.1906439839377,0.2451758179969713,1.32817348151554,0.9290462479339436,0.28800856396102426,0.6565757845343418
0.025500000000000002,1.784115142520922,1.0,2600.009722629282,0.2494097769244223,1.327762856358076,0.931191960538101,0.28798583598587874,0.6574346619642708
0.026000000000000002,1.7835740002555522,1.0,2617.211776304909,0.2536199924245342,1.327358527121771,0.9332311191790766,0.2879631080107332,0.6582793199000789
0.0265,1.7830328579901824,1.0,2633.819581349416,0.2578065969956348,1.326960221073212,0.9351706991749557,0.28794038003558764,0.6591103757517738
0.027,1.7824917157248126,1.0,2649.85229980828,0.2619697201582903,1.3265677045509288,0.9370171208952405,0.2879176520604421,0.6599283620674021
0.0275,1.7819505734594427,1.0,2665.329629756016,0.2661094914330667,1.3261807438934499,0.9387762969867268,0.2878949240852966,0.6607338083964148
0.028,1.781409431194073,1.0,2680.271775908114,0.2702260403405303,1.3257991054393046,0.9404536792444217,0.2878721961101511,0.6615272413741993
0.0285,1.780868288928703,1.0,2694.699421443401,0.2743194964012472,1.3254225555270225,0.9420543005893641,0.28784946813500556,0.6623091848031313
0.029,1.7803271466633332,1.0,2708.6337010370094,0.2783899891357835,1.3250508604951323,0.9435828127173223,0.28782674015986,0.6630801597301468
0.029500000000000002,1.7797860043979634,1.0,2722.0961751038913,0.2824376480647053,1.3246837866821635,0.9450435199119681,0.28780401218471446,0.6638406845208271
0.03,1.7792448621325934,1.0,2735.108805252458,0.28646260270857876,1.324321100426645,0.9464404094551003,0.28778128420956894,0.6645912749300065
0.0305,1.7787037198672235,1.0,2747.689878966321,0.2904649787928819,1.3239626047759712,0.9477771825206933,0.28775855623442337,0.6653323683251529
0.031,1.7781625776018537,1.0,2759.8564388914124,0.2944449021738536,1.3236081169216696,0.9490572769597377,0.28773582825927785,0.6660643707347291
0.0315,1.7776214353364839,1.0,2771.6355791785186,0.2984025086157689,1.3232573659917675,0.9502838797405085,0.28771310028413233,0.6667878677680629
0.032,1.777080293071114,1.0,2783.0403022493183,0.30233791999768517,1.3229102111426176,0.9514599671785182,0.28769037230898675,0.6675031745530297
0.0325,1.7765391508057442,1.0,2794.083827196952,0.3062512581986597,1.322566511530573,0.9525883107457537,0.2876676443338413,0.6682106047161886
0.033,1.7759980085403744,1.0,2804.7795787758632,0.3101426450977499,1.3222261263119857,0.9536714936652725,0.2876449163586957,0.6689104704144524
0.0335,1.7754568662750045,1.0,2815.1411768327116,0.31401220257401313,1.3218889146432087,0.95471192597198,0.2876221883835502,0.6696030823654883
0.034,1.7749157240096347,1.0,2825.182426175668,0.31786005250650673,1.3215547356805946,0.9557118581976872,0.2875994604084047,0.670288749876859
0.0345,1.7743745817442647,1.0,2834.9173068845976,0.32168631677428805,1.321223448580496,0.9566733938207033,0.2875767324332591,0.6709677808738952
0.035,1.7738334394788948,1.0,2844.3599650607503,0.32549111725641444,1.320894912499265,0.9575985006045197,0.2875540044581136,0.6716404819263043
0.035500000000000004,1.773292297213525,1.0,2853.524704015903,0.3292745758319432,1.3205689865932553,0.9584890209363799,0.28753127648296806,0.6723071582735118
0.036000000000000004,1.7727511549481552,1.0,2862.422750945507,0.3330368096014143,1.3202455586437336,0.9593466831036037,0.2875085485078225,0.6729680553857238
0.0365,1.7722100126827853,1.0,2871.0643941691974,0.3367779362670014,1.3199245258292094,0.96017310907271,0.28748582053267696,0.6736233985107001
0.037,1.7716688704174155,1.0,2879.4683932163757,0.3404980868382153,1.3196057113260935,0.9609698167791937,0.28746309255753144,0.6742735627797889
0.0375,1.7711277281520457,1.0,2887.6426679162473,0.3441973754711776,1.3192890354401956,0.9617382378701853,0.2874403645823859,0.6749187240040482
0.038,1.7705865858866758,1.0,2895.595220381852,0.3478759163220102,1.3189744184773255,0.9624797181747874,0.2874176366072404,0.6755590572610077
0.0385,1.770045443621306,1.0,2903.3341313013925,0.3515338235468349,1.3186617807432925,0.9631955237945686,0.2873949086320948,0.6761947369053373
0.039,1.769504301355936,1.0,2910.867556370886,0.3551712113017734,1.3183510425439064,0.9638868466979923,0.2873721806569493,0.6768259365791067
0.0395,1.7689631590905661,1.0,2918.203722867051,0.3587881937429477,1.3180421241849771,0.964554809864122,0.2873494526818038,0.6774528292216442
0.04,1.7684220168251963,1.0,2925.3509263616884,0.3623848850264794,1.3177349459723138,0.9652004720163697,0.2873267247066582,0.6780755870789887
0.0405,1.7678808745598265,1.0,2932.317527576475,0.3659613993084904,1.3174294282117263,0.9658248319829864,0.2873039967315127,0.6786943817129354
0.041,1.7673397322944566,1.0,2939.1119493783617,0.3695178507451026,1.3171254912090242,0.9664288327173618,0.28728126875636717,0.6793093840096782
0.0415,1.7667985900290868,1.0,2945.7426739164002,0.3730543534924377,1.3168230552700173,0.9670133650079713,0.28725854078122165,0.6799207641880471
0.042,1.766257447763717,1.0,2952.216328339933,0.37657101668790405,1.3165220574076089,0.9675792714623334,0.28723581280607613,0.680528658081806
0.0425,1.7657163054983471,1.0,2958.5367663048555,0.3800679446705455,1.316222459249,0.9681273503508989,0.28721308483093055,0.6811331513600593
0.043000000000000003,1.765175163232977,1.0,2964.7178124885577,0.38354526928865307,1.3159241357377827,0.9686583546001939,0.28719035685578503,0.6817345040125481
0.043500000000000004,1.7646340209676072,1.0,2970.763836279714,0.3870030965743665,1.3156270448204916,0.9691729997753319,0.2871676288806395,0.6823328079651894
0.044,1.7640928787022374,1.0,2976.679237062453,0.39044153255982555,1.315331144443661,0.9696719639711578,0.28714490090549394,0.6829281547954431
0.0445,1.7635517364368676,1.0,2982.4684430869816,0.39386068327717005,1.315036392553825,0.9701558901457165,0.2871221729303484,0.683520635735562
0.045,1.7630105941714977,1.0,2988.1359103787645,0.3972606547585398,1.3147427470975184,0.9706253882862477,0.2870994449552029,0.6841103416757257
0.0455,1.762469451906128,1.0,2993.686121687533,0.4006415530360745,1.314450166021275,0.971081037421253,0.2870767169800574,0.6846973631670681
0.046,1.761928309640758,1.0,2999.1235854751303,0.40400348414191395,1.3141586072716294,0.9715233874909642,0.28705398900491186,0.685281790424586
0.0465,1.7613871673753883,1.0,3004.452834942728,0.40734655410819787,1.3138680287951159,0.9719529610874543,0.2870312610297663,0.6858637133299372
0.047,1.7608460251100184,1.0,3009.678427097541,0.4106708689670661,1.3135783885382688,0.9723702550746339,0.28700853305462076,0.6864432214341281
0.0475,1.7603048828446486,1.0,3014.8049418578844,0.41397653475065843,1.3132896444476225,0.9727757420974904,0.28698580507947524,0.6870204039600838
0.048,1.7597637405792785,1.0,3019.836981198268,0.4172636574911145,1.3130017544697112,0.9731698719891139,0.28696307710432967,0.6875953498051104
0.0485,1.7592225983139087,1.0,3024.779168333667,0.42053234322057426,1.3127146765510693,0.9735530730833273,0.28694034912918415,0.6881681475432402
0.049,1.7586814560485389,1.0,3029.6335677640323,0.42378268491454296,1.3124283908904637,0.9739257533846162,0.2869176211540386,0.6887388410892719
0.0495,1.758140313783169,1.0,3034.40344315946,0.42701478609376875,1.31214286744881,0.9742883023688942,0.2868948931788931,0.689307494581743
0.05,1.7575991715177992,1.0,3039.0963475963786,0.4302287725873195,1.3118580393657726,0.9746410915628149,0.2868721652037476,0.6898742451624242
0.0505,1.7570580292524294,1.0,3043.7144710681196,0.43342474171011763,1.3115738861805801,0.9749844751469188,0.286849437228602,0.6904391372778409
0.051000000000000004,1.7565168869870595,1.0,3048.2600138759067,0.4366027907770854,1.3112903874324613,0.9753187911904346,0.2868267092534565,0.6910022152173092
0.051500000000000004,1.7559757447216897,1.0,3052.7351863271256,0.4397630171031452,1.3110075226606446,0.9756443625263964,0.28680398127831097,0.6915635231138031
0.052000000000000005,1.7554346024563197,1.0,3057.142208442872,0.44290551800321937,1.310725271404359,0.9759614975717928,0.2867812533031654,0.6921231049447943
0.0525,1.7548934601909498,1.0,3061.4833096758243,0.44603039079223017,1.3104436132028325,0.9762704910966562,0.2867585253280199,0.692681004533068
0.053,1.75435231792558,1.0,3065.760728635527,0.44913773278510005,1.3101625275952944,0.9765716249456857,0.28673579735287436,0.6932372655475072
0.0535,1.7538111756602102,1.0,3069.9767128246854,0.45222764129675136,1.3098819941209727,0.976865168715717,0.28671306937772884,0.6937919315038567
0.054,1.7532700333948403,1.0,3074.1335183838123,0.45530021364210643,1.3096019923190965,0.9771513803920966,0.2866903414025833,0.6943450457654532
0.0545,1.7527288911294705,1.0,3078.2334098453575,0.45835554713608756,1.309322501728894,0.9774305069467829,0.28666761342743774,0.694896651543936
0.055,1.7521877488641007,1.0,3082.2786598974735,0.46139373909361714,1.3090435018895943,0.9777027849007769,0.2866448854522922,0.6954467918999245
0.0555,1.7516466065987308,1.0,3086.271549156222,0.4644148868296175,1.3087649723404255,0.9779684408532919,0.2866221574771467,0.6959955097436743
0.056,1.751105464333361,1.0,3090.2143659480103,0.46741908765901097,1.3084868926206163,0.9782276919798923,0.2865994295020012,0.6965428478357025
0.0565,1.750564322067991,1.0,3094.109406100567,0.4704064388967199,1.3082092422693958,0.9784807465016558,0.2865767015268556,0.697088848787388
0.057,1.7500231798026211,1.0,3097.9581026499495,0.47337702790716635,1.3079320082496133,0.978727803667861,0.2865539735517101,0.6976335404826532
0.0575,1.7494820375372513,1.0,3101.7591270556522,0.4763309156272973,1.3076552011137959,0.978969053694829,0.28653124557656456,0.69817690442484
0.058,1.7489408952718815,1.0,3105.519257370576,0.4792682583883238,1.3073787623177258,0.9792046835527709,0.28650851760141904,0.6987190576403797
0.0585,1.7483997530065116,1.0,3109.239464411357,0.4821891438025439,1.3071026829246823,0.979434869573178,0.28648578962627347,0.699260019580555
0.059000000000000004,1.7478586107411418,1.0,3112.920722380443,0.4850936594822554,1.3068269539979447,0.9796597811374089,0.28646306165112795,0.6997998096311963
0.059500000000000004,1.747317468475772,1.0,3116.5640087950255,0.4879818930397565,1.3065515666007923,0.9798795810050627,0.28644033367598243,0.7003384471128826
0.06,1.7467763262104021,1.0,3120.1703044189812,0.49085393208734496,1.3062765117965043,0.9800944256243641,0.28641760570083685,0.7008759512811409
0.0605,1.7462351839450323,1.0,3123.7405931960093,0.4937098642373189,1.3060017806483601,0.9803044654256775,0.2863948777256914,0.7014123413266355
0.061,1.7456940416796622,1.0,3127.2758621843072,0.4965497771019763,1.3057273642196388,0.9805098450991917,0.2863721497505458,0.7019476363753583
0.0615,1.7451528994142924,1.0,3130.7771014938467,0.4993737582936151,1.3054532535736199,0.9807107038577403,0.2863494217754003,0.702481855488807
0.062,1.7446117571489226,1.0,3134.245304224486,0.5021818954245333,1.3051794397735823,0.9809071756856631,0.2863266938002548,0.703015017664166
0.0625,1.7440706148835528,1.0,3137.6814664063677,0.5049742761070288,1.3049059138828056,0.9810993895745483,0.2863039658251092,0.7035471418344743
0.063,1.743529472618183,1.0,3141.086586942163,0.5077509879533998,1.3046326669645691,0.9812874697466415,0.2862812378499637,0.7040782468687944
0.0635,1.742988330352813,1.0,3144.4616675507036,0.510512118575944,1.304359690082152,0.98147153586665,0.28625850987481816,0.7046083515723739
0.064,1.7424471880874433,1.0,3147.8077127125152,0.5132577555869596,1.3040869742988335,0.9816517032426335,0.2862357818996726,0.7051374746868004
0.0645,1.7419060458220734,1.0,3151.1257296175886,0.5159879865987445,1.303814510677893,0.9818280830166102,0.28621305392452706,0.7056656348901547
0.065,1.7413649035567036,1.0,3154.416728114143,0.5187028992235966,1.3035422902826095,0.9820007823454865,0.28619032594938154,0.7061928507971558
0.0655,1.7408237612913335,1.0,3157.6817206597243,0.5214025810738141,1.3032703041762626,0.9821699045728579,0.286167597974236,0.7067191409593023
0.066,1.7402826190259637,1.0,3160.9217222737884,0.5240871197616948,1.3029985434221314,0.9823355493922125,0.2861448699990905,0.7072445238650088
0.0665,1.7397414767605939,1.0,3164.13775049224,0.5267566028995366,1.3027269990834953,0.9824978130020192,0.2861221420239449,0.7077690179397367
0.067,1.739200334495224,1.0,3167.330825323875,0.5294111180996377,1.3024556622236334,0.9826567882531649,0.2860994140487994,0.7082926415461206
0.0675,1.7386591922298542,1.0,3170.4999031541174,0.5320507018203996,1.3021845413305158,0.9828125623422752,0.2860766860736539,0.7088153794032711
0.068,1.7381180499644844,1.0,3173.6473152241238,0.5346754901353362,1.301913616428933,0.982965224478663,0.2860539580985083,0.7093372710931221
0.0685,1.7375769076991145,1.0,3176.7740336021766,0.5372855761366404,1.3016428790372667,0.9831148586390231,0.2860312301233628,0.7098583339480513
0.069,1.7370357654337447,1.0,3179.88047658988,0.5398810376875519,1.3013723253560832,0.9832615452370049,0.28600850214821727,0.7103785762419234
0.0695,1.7364946231683747,1.0,3182.967063598371,0.5424619526513105,1.3011019515859492,0.983405361999571,0.28598577417307175,0.7108980062217243
0.07,1.7359534809030048,1.0,3186.034215132614,0.5450283988911557,1.3008317539274312,0.9835463840751271,0.28596304619792623,0.7114166321076068
