Time [s],Phi [rad],STIM [ ],Fsee [N],Gamma [ ],Lcerel [ ],q [ ],Lmtc [m],fisomrel [ ]
0.0,1.8,1.0,18.27114838761306,0.0005606550409928602,1.3793058319975753,0.005081141937585667,0.288653,0.5412215746576123
0.0005,1.79999375,1.0,18.75211098827214,0.00616671951843351,1.3792499227424706,0.014539694110411207,0.2886527375,0.5413568115428256
0.001,1.799975,1.0,22.502399977102073,0.011741338406546788,1.37884891726929,0.03853555772930981,0.28865195,0.5423262049868838
0.0015,1.79994375,1.0,32.856228686226764,0.017284688091118817,1.3778960864659782,0.07457052267103756,0.2886506375,0.5446254714084756
0.002,1.7999,1.0,57.15795243431139,0.02279694396663016,1.3761399132673198,0.11939383845600438,0.2886488,0.5488481047425164
0.0025,1.79984375,1.0,102.90525087561552,0.028278280444226457,1.3736603724659844,0.1696461989170604,0.28864643749999996,0.5547765498998145
0.003,1.7997750000000001,1.0,168.3340117729811,0.033728870960125175,1.3709413512731359,0.22250230050812794,0.28864354999999997,0.5612325061086099
0.0035,1.79969375,1.0,245.9338660084095,0.039148887972625133,1.3683327639103644,0.2757995829047748,0.2886401375,0.567381935682882
0.004,1.7996,1.0,330.1974003659736,0.04453850297512581,1.3659264004680243,0.32793292775537053,0.2886362,0.573016165307765
0.0045000000000000005,1.7994937500000001,1.0,418.27900524083583,0.04989788649884874,1.3637124373902916,0.37779356690133176,0.2886317375,0.5781672923712157
0.005,1.799375,1.0,508.5806508352361,0.05522720809660072,1.3616644270635667,0.4246976189826145,0.28862675,0.5829044712907591
0.0055,1.79924375,1.0,600.0299313172196,0.06052663647056375,1.359759017661618,0.4682922023560874,0.2886212375,0.5872877844743225
0.006,1.7991000000000001,1.0,691.7481190663968,0.06579633919312987,1.3579792011485239,0.5084639322427486,0.2886152,0.5913612613044155
0.006500000000000001,1.79894375,1.0,783.0460888068789,0.07103648306188887,1.3563112644132622,0.5452599882035564,0.2886086375,0.5951603407277498
0.007,1.798775,1.0,873.336198037379,0.07624723388348736,1.3547445829730003,0.578828849965674,0.28860155,0.5987126302656638
0.0075,1.79859375,1.0,962.1269596859627,0.08142875637562622,1.3532704549050523,0.6093766553613142,0.2885939375,0.6020407706989077
0.008,1.7984,1.0,1049.0580290787354,0.08658121490116218,1.3518808292858242,0.6371367368365647,0.2885858,0.6051654399908184
0.0085,1.79819375,1.0,1133.8039668013703,0.09170477206075014,1.3505692838290677,0.6623505854690687,0.2885771375,0.6081032437358883
0.009000000000000001,1.797975,1.0,1216.1274533168664,0.09679958992404589,1.3493298099217792,0.6852547429808662,0.28856795,0.6108695277423903
0.0095,1.79774375,1.0,1295.8697902919075,0.10186583019453573,1.3481567219962085,0.7060734793105025,0.2885582375,0.613478625410889
0.01,1.7975,1.0,1372.89666452427,0.10690365285499831,1.3470451790572404,0.725015205203769,0.288548,0.6159427413683927
0.0105,1.79724375,1.0,1447.1207674515515,0.11191321709716803,1.3459906835704196,0.7422705512616944,0.2885372375,0.6182731086813578
0.011,1.796975,1.0,1518.5022566315806,0.11689468145381204,1.3449889502438626,0.7580120855343138,0.28852595000000003,0.6204803067909367
0.0115,1.79669375,1.0,1587.038803137317,0.12184820438823256,1.344035929640131,0.7723949629358889,0.2885141375,0.6225742318770755
0.012,1.7964,1.0,1652.7166421033726,0.12677394176877826,1.343128293818688,0.7855582356577098,0.28850180000000003,0.624563054786595
0.0125,1.79609375,1.0,1715.5596932167105,0.13167204931491097,1.342262752520148,0.7976258626765685,0.2884889375,0.6264547456547573
0.013000000000000001,1.7957750000000001,1.0,1775.6098004906976,0.13654268195049835,1.3414362315939643,0.8087082080346795,0.28847555,0.6282566956470433
0.0135,1.79544375,1.0,1832.9449246015101,0.14138599513593578,1.3406456168698944,0.8189033380917722,0.2884616375,0.6299762873320445
0.014,1.7951000000000001,1.0,1887.6137945360647,0.14620214132880402,1.3398884392188295,0.8282986094895468,0.2884472,0.6316194160886099
0.0145,1.79474375,1.0,1939.673211773478,0.15099127224056397,1.3391623989006682,0.8369716932531484,0.2884322375,0.6331915407268622
0.015,1.794375,1.0,1989.2008902858217,0.1557535395826764,1.3384651961753091,0.844991632615403,0.28841675,0.6346980579655916
0.0155,1.79399375,1.0,2036.275409201219,0.16048909405671755,1.3377947231545662,0.8524199160282132,0.2884007375,0.6361438935233737
0.016,1.7936,1.0,2081.0008779212803,0.1651980868688259,1.3371487789776673,0.859311277803566,0.2883842,0.6375341225569773
0.0165,1.7931937500000001,1.0,2123.4485097766587,0.169880666071438,1.3365256615055146,0.8657146758329519,0.2883671375,0.6388727013656755
0.017,1.792775,1.0,2163.6926898015495,0.1745369791784594,1.3359237612814179,0.8716738511073192,0.28834955,0.6401633501484215
0.0175,1.7923437500000001,1.0,2201.818692075418,0.17916717370379565,1.3353414688486873,0.8772279169952443,0.2883314375,0.6414097553265461
0.018000000000000002,1.7919,1.0,2237.90901225384,0.1837713960121897,1.3347773026163179,0.8824119365949501,0.2883128,0.642615298638209
0.0185,1.79144375,1.0,2272.0623098005412,0.18834979349866868,1.3342297066269873,0.8872573427944641,0.2882936375,0.6437834923725703
0.019,1.790975,1.0,2304.3514397982503,0.1929025101304171,1.3336974608644705,0.891792458649264,0.28827395,0.6449171065452972
0.0195,1.79049375,1.0,2334.847867395012,0.19742968910133163,1.3331794230226253,0.8960427889089472,0.2882537375,0.6460187247267555
0.02,1.79,1.0,2363.6288291110995,0.20193147360530903,1.3326744507953092,0.9000313211176684,0.288233,0.6470909113139012
0.0205,1.78949375,1.0,2390.7721818759437,0.20640800611156482,1.3321814471606892,0.9037788177098611,0.2882117375,0.6481361165887445
0.021,1.788975,1.0,2416.3565919511766,0.21085942909364563,1.3316993529155885,0.9073040611752575,0.28818995000000003,0.6491566941179205
0.021500000000000002,1.78844375,1.0,2440.4595863490404,0.21528588471856416,1.3312271604804042,0.9106240731824811,0.2881676375,0.6501548729594661
0.022,1.7879,1.0,2463.139071655746,0.2196875114656547,1.3307640859420515,0.9137543376951959,0.2881448,0.6511323962082882
0.0225,1.78734375,1.0,2484.4559689841653,0.2240644478142517,1.3303093453874457,0.9167089209572034,0.28812143749999997,0.6520909960131285
0.023,1.786775,1.0,2504.4739641966344,0.22841683224368944,1.3298621549035021,0.919500620922396,0.28809755,0.6530323940128124
0.0235,1.78619375,1.0,2523.2592717520247,0.23274480323330232,1.329421730577136,0.9221410991685887,0.28807313749999996,0.653958301733306
0.024,1.7856,1.0,2540.867178356792,0.23704849594832575,1.3289874131707584,0.924641018420621,0.2880482,0.6548701593597344
0.0245,1.78499375,1.0,2557.373164475622,0.2413280513287157,1.3285583718976488,0.9270100953081768,0.2880227375,0.6557697584692803
0.025,1.784375,1.0,2572.8224679314867,0.24558360278336183,1.3281340776386654,0.9292572704813313,0.28799675,0.6566582496563211
0.025500000000000002,1.78374375,1.0,2587.261084309221,0.24981528355425914,1.327714007486349,0.93139073753219,0.2879702375,0.65753676434068
0.026000000000000002,1.7831000000000001,1.0,2600.736306560108,0.2540232268834026,1.327297638533241,0.9334180146707134,0.2879432,0.6584064279673596
0.0265,1.78244375,1.0,2613.2966136123036,0.25820756601278727,1.3268844478718818,0.9353460095101453,0.2879156375,0.6592683601386959
0.027,1.781775,1.0,2624.991565043662,0.2623684341844082,1.326473912594813,0.937181076847791,0.28788755,0.6601236747290637
0.0275,1.7810937500000001,1.0,2635.86120664361,0.266505960735121,1.3260656068713392,0.9389290832699759,0.2878589375,0.66097327811105
0.028,1.7804,1.0,2645.960893518023,0.27062028202578625,1.3256589709928215,0.940595422273874,0.2878298,0.6618183501654868
0.0285,1.77969375,1.0,2655.327959875747,0.2747115275800933,1.325253619048571,0.9421850963317765,0.2878001375,0.6626597043871396
0.029,1.778975,1.0,2663.9951019074697,0.2787798248700477,1.3248492135719474,0.9437027356797996,0.28776995,0.6634980498778295
0.029500000000000002,1.7782437500000001,1.0,2671.9955537791793,0.2828253013676548,1.3244454170963103,0.9451526252576087,0.2877392375,0.6643340922359735
0.03,1.7775,1.0,2679.363039574942,0.2868480845449201,1.324041892155019,0.9465387348761758,0.287708,0.665168533573326
0.0305,1.77674375,1.0,2686.131727765129,0.29084830187384914,1.3236383012814332,0.947864746391551,0.2876762375,0.6660020725244524
0.031,1.775975,1.0,2692.3361881992714,0.29482608082644723,1.3232343070089123,0.949134078214322,0.28764395,0.666835404248942
0.0315,1.7751937500000001,1.0,2698.008614983461,0.2987815476346152,1.322829596890586,0.95034991017289,0.2876111375,0.6676691689140998
0.032,1.7744,1.0,2703.1792136487443,0.3027148284733534,1.3224238794965408,0.9515152031266662,0.2875778,0.6685039602372453
0.0325,1.77359375,1.0,2707.8752490601814,0.3066260479762295,1.3220168927094382,0.9526327173893868,0.2875439375,0.6693403087045859
0.033,1.772775,1.0,2712.1198909895074,0.3105153285486398,1.3216084138717719,0.9537050298924199,0.28750955,0.6701786611188875
0.0335,1.7719437500000002,1.0,2715.9365046058783,0.3143827925959806,1.321198220326035,0.9547345448776087,0.2874746375,0.6710194619240684
0.034,1.7711000000000001,1.0,2719.3486305227375,0.31822856252364834,1.3207860894147212,0.9557235075254596,0.2874392,0.6718631531824315
0.0345,1.7702437500000001,1.0,2722.37996594432,0.32205276073703937,1.3203717984803236,0.9566740163544328,0.2874032375,0.6727101745487338
0.035,1.769375000004009,1.0,2725.0667618470197,0.32585550039948064,1.3199550119281855,0.9575880200830132,0.28736675000016837,0.6735611936927126
0.035500000000000004,1.768500010015217,1.0,2727.706994470003,0.3296369167108501,1.3195358427439567,0.9584673961638498,0.2873300004206391,0.6744159604652722
0.036000000000000004,1.767625020026425,1.0,2730.591588408848,0.33339712663397636,1.3191144644204051,0.9593139052149595,0.28729325084110985,0.675274102671167
0.0365,1.766750030037633,1.0,2733.7023409574545,0.3371362465176998,1.3186910457852745,0.9601291973265923,0.2872565012615806,0.6761352593631635
0.037,1.765875040048841,1.0,2737.021036373665,0.3408543927108608,1.3182657556663089,0.9609148208297148,0.2872197516820513,0.6769990713333973
0.0375,1.7650000500600491,1.0,2740.5294385585767,0.34455168156229987,1.317838762891252,0.961672229712466,0.28718300210252207,0.677865181134434
0.038,1.764125060071257,1.0,2744.2092843669147,0.3482282294208573,1.3174102362878473,0.9624027904179694,0.2871462525229928,0.6787332330985107
0.0385,1.763250070082465,1.0,2748.0422775496836,0.3518841526353734,1.3169803446838388,0.9631077880812765,0.2871095029434635,0.6796028733549577
0.039,1.762375080093673,1.0,2752.0100833289616,0.3555195675546888,1.3165492569069706,0.96378843225727,0.2870727533639343,0.680473749845806
0.0395,1.761500090104881,1.0,2756.0943236040625,0.3591345905276437,1.316117141784986,0.9644458621860875,0.28703600378440497,0.6813455123395762
0.04,1.760625100116089,1.0,2760.27937218663,0.36272933551993963,1.3156841428424375,0.965081148933957,0.2869992542048757,0.6822178633859551
0.0405,1.759750110127297,1.0,2764.555947215287,0.36630391456040423,1.3152503459204763,0.9656952973351017,0.28696250462534645,0.6830906230772322
0.041,1.758875120138505,1.0,2768.9053949364757,0.36985844888004415,1.3148159212144432,0.9662892647902079,0.2869257550458172,0.683963443080043
0.0415,1.758000130149713,1.0,2773.321037486249,0.3733930481253381,1.3143809304207024,0.966863944253792,0.2868890054662879,0.6848361944764461
0.042,1.757125140160921,1.0,2777.7961775000863,0.3769078219427646,1.3139454352356181,0.9674201797528471,0.28685225588675867,0.6857087490265252
0.0425,1.756250150172129,1.0,2782.3240973803063,0.38040287997880234,1.3135094973555541,0.9679587695712255,0.2868155063072294,0.6865809791704969
0.043000000000000003,1.755375160183337,1.0,2786.8980586486396,0.38387833187993,1.3130731784768745,0.9684804691956745,0.28677875672770015,0.6874527580305709
0.043500000000000004,1.754500170194545,1.0,2791.5113013826667,0.3873342872926261,1.3126365402959437,0.968985994043607,0.2867420071481709,0.6883239594125727
0.044,1.753625180205753,1.0,2796.157043736973,0.3907708558633693,1.3121996445091253,0.9694760219907953,0.2867052575686416,0.6891944578073208
0.0445,1.752750190216961,1.0,2800.8284815484785,0.39418814723863826,1.3117625528127834,0.9699511957155105,0.28666850798911236,0.6900641283917617
0.045,1.751875200228169,1.0,2805.5187880262197,0.39758627106491157,1.311325326903282,0.9704121248741157,0.2866317584095831,0.6909328470298615
0.0455,1.751000210239377,1.0,2810.225225034205,0.40096532968024523,1.310887991645591,0.9708593843204265,0.28659500883005384,0.6918005632990143
0.046,1.750125220250585,1.0,2814.940389970962,0.40432543889451267,1.3104506135720684,0.9712935249800108,0.2865582592505246,0.6926671445558874
0.0465,1.749250230261793,1.0,2819.660957754907,0.4076667044626462,1.3100132225268333,0.9717150662586849,0.2865215096709953,0.6935325314366332
0.047,1.748375240273001,1.0,2824.3846626789723,0.4109892297898645,1.3095758387879761,0.972124500981841,0.28648476009146606,0.694396683796942
0.0475,1.747500250284209,1.0,2829.109231442705,0.41429311828138615,1.3091384826335875,0.9725222979604464,0.2864480105119368,0.69525956171876
0.048,1.746625260295417,1.0,2833.832383159878,0.4175784733424298,1.3087011743417583,0.9729089033866567,0.28641126093240754,0.696121125510266
0.0485,1.745750270306625,1.0,2838.551829375981,0.42084539837821394,1.3082639341905786,0.9732847421358196,0.2863745113528783,0.6969813357058247
0.049,1.744875280317833,1.0,2843.265274093668,0.42409399679395726,1.307826782458139,0.9736502189819587,0.28633776177334896,0.6978401530659104
0.0495,1.744000290329041,1.0,2847.9704138084476,0.4273243719948783,1.3073897394225305,0.9740057197332267,0.2863010121938197,0.6986975385770052
0.05,1.743125300340249,1.0,2852.664937552665,0.4305366273861957,1.3069528253618432,0.9743516122932797,0.28626426261429044,0.6995534534514726
0.0505,1.742250310351457,1.0,2857.348479910756,0.4337308526910505,1.306516043204165,0.9746882449609673,0.2862275130347612,0.7004078930435667
0.051000000000000004,1.741375320362665,1.0,2862.0193639573,0.43690715234811695,1.3060794075108664,0.9750159526227689,0.2861907634552319,0.7012608300312404
0.051500000000000004,1.740500330373873,1.0,2866.673391592267,0.44006565035917444,1.305642955158502,0.9753350586180649,0.28615401387570266,0.7021121937563071
0.052000000000000005,1.739625340385081,1.0,2871.3102471834623,0.4432064423127371,1.3052066884980056,0.9756458665306321,0.2861172642961734,0.7029619811737289
0.0525,1.738750350396289,1.0,2875.9296144688647,0.4463296237973191,1.3047706098803105,0.9759486665320475,0.28608051471664414,0.7038101892639783
0.053,1.737875360407497,1.0,2880.5311765665683,0.4494352904014347,1.3043347216563503,0.9762437360903581,0.2860437651371149,0.7046568150330095
0.0535,1.737000370418705,1.0,2885.1146159844766,0.45252353771359805,1.303899026177059,0.9765313406354279,0.2860070155575856,0.7055018555122294
0.054,1.736125380429913,1.0,2889.679614630491,0.4555944613223233,1.3034635257933702,0.9768117341839596,0.28597026597805636,0.7063453077584712
0.0545,1.735250390441121,1.0,2894.225853822447,0.45864815681612464,1.3030282228562173,0.9770851599269571,0.28593351639852704,0.7071871688539626
0.055,1.734375400452329,1.0,2898.7530142986534,0.4616847197835162,1.302593119716534,0.9773518507821856,0.28589676681899784,0.708027435906299
0.0555,1.733500410463537,1.0,2903.2607762274642,0.4647042458130123,1.302158218725254,0.977612029913987,0.2858600172394685,0.7088661060484105
0.056,1.7326254204747449,1.0,2907.748819218973,0.46770683049312695,1.3017235222333108,0.9778659112226367,0.28582326765993926,0.7097031764385358
0.0565,1.731750430485953,1.0,2912.2168223344247,0.4706925694123745,1.3012890325916382,0.9781136998052641,0.28578651808041,0.7105386442601874
0.057,1.730875440497161,1.0,2916.6644640976174,0.4736615581592689,1.3008547521511697,0.9783555923902065,0.28574976850088074,0.7113725067221244
0.0575,1.730000450508369,1.0,2921.091422505673,0.4766138923223246,1.3004206832628389,0.9785917777465329,0.2857130189213515,0.7122047610583196
0.058,1.729125460519577,1.0,2925.497375039701,0.47954966749005556,1.2999868282775797,0.9788224370703449,0.2856762693418222,0.713035404527927
0.0585,1.728250470530785,1.0,2929.8819986762574,0.4824689792509761,1.2995531895463255,0.9790477443493483,0.28563951976229296,0.7138644344152526
0.059000000000000004,1.727375480541993,1.0,2934.2462365296597,0.4853718690200331,1.2991197583157557,0.9792678615885767,0.2856027701827637,0.7146918692127676
0.059500000000000004,1.7265004905532009,1.0,2938.5893384745054,0.4882584986263617,1.2986865406944106,0.9794829552405987,0.28556602060323444,0.7155176990051219
0.06,1.725625500564409,1.0,2942.9114982156534,0.49112895484648883,1.2982535345132435,0.9796931786640896,0.2855292710237052,0.7163419296886397
0.0605,1.724750510575617,1.0,2947.212920809276,0.4939833238209671,1.2978207375129012,0.9798986792774338,0.2854925214441759,0.7171645673063509
0.061,1.723875520586825,1.0,2951.4938123589072,0.4968216916903491,1.2973881474340299,0.9800995988884876,0.28545577186464666,0.7179856178754966
0.0615,1.723000530598033,1.0,2955.7543800050876,0.4996441445951874,1.2969557620172762,0.9802960739510344,0.2854190222851174,0.71880508738756
0.062,1.722125540609241,1.0,2959.9948319148175,0.5024507686760347,1.2965235790032874,0.9804882358076368,0.28538227270558814,0.7196229818082946
0.0625,1.721250550620449,1.0,2964.215377271669,0.5052416500734433,1.2960915961327093,0.9806762109197119,0.2853455231260589,0.7204393070777569
0.063,1.7203755606316569,1.0,2968.4162262654972,0.5080168749279662,1.2956598111461892,0.9808601210855836,0.2853087735465296,0.7212540691103307
0.0635,1.719500570642865,1.0,2972.597590082644,0.5107765293801557,1.2952282217843734,0.9810400836472303,0.28527202396700035,0.7220672737947604
0.064,1.718625580654073,1.0,2976.75968089584,0.5135206995705645,1.2947968257879083,0.9812162116863925,0.28523527438747104,0.7228789269941761
0.0645,1.717750590665281,1.0,2980.902711854807,0.5162494716397452,1.294365620897441,0.9813886142106624,0.28519852480794183,0.7236890345461227
0.065,1.716875600676489,1.0,2985.026897076009,0.5189629317282504,1.2939346048536178,0.9815573963301335,0.2851617752284125,0.724497602262588
0.0655,1.716000610687697,1.0,2989.132451634061,0.5216611659766326,1.2935037753970855,0.9817226594251597,0.28512502564888326,0.7253046359300293
0.066,1.715125620698905,1.0,2993.2195915514712,0.5243442605254445,1.2930731302684906,0.9818845013057251,0.285088276069354,0.7261101413094017
0.0665,1.7142506307101129,1.0,2997.2885337898633,0.5270123015152386,1.2926426672084796,0.9820430163629088,0.28505152648982474,0.7269141241361832
0.067,1.713375640721321,1.0,3001.3394962404905,0.5296653750865676,1.2922123839576996,0.9821982957128835,0.2850147769102955,0.7277165901204017
0.0675,1.7125006507325289,1.0,3005.3726977153433,0.5323035673799841,1.291782278256797,0.982350427333869,0.2849780273307662,0.7285175449466619
0.068,1.711625660743737,1.0,3009.3883579383046,0.5349269645360406,1.291352347846418,0.9824994961964324,0.28494127775123695,0.7293169942741706
0.0685,1.710750670754945,1.0,3013.3866789880567,0.5375356502314341,1.2909225906276651,0.9826455842391842,0.2849045281717077,0.7301149434390561
0.069,1.709875680766153,1.0,3017.367633549611,0.5401296654965092,1.2904930064920952,0.9827887680734975,0.28486777859217843,0.7309113940662741
0.0695,1.709000690777361,1.0,3021.3319677840386,0.5427091510393944,1.2900635886508318,0.9829291276338484,0.2848310290126492,0.7317063601371206
0.07,1.7081257007885688,1.0,3025.279879769003,0.5452741838580896,1.2896343350665123,0.9830667364798095,0.28479427943311986,0.7324998467811841
0.07050000000000001,1.707250710799777,1.0,3029.211568379267,0.547824840950594,1.2892052437017738,0.9832016657552652,0.2847575298535906,0.733291859105222
0.07100000000000001,1.7063757208109849,1.0,3033.12723327908,0.5503611993149072,1.288776312519254,0.983333984284134,0.28472078027406134,0.7340824021931829
0.07150000000000001,1.705500730822193,1.0,3037.027074915206,0.5528833359490288,1.2883475394815898,0.9834637586616786,0.2846840306945321,0.7348714811062278
