Time [s],Phi [rad],STIM [ ],Fsee [N],Gamma [ ],Lcerel [ ],q [ ],Lmtc [m],fisomrel [ ]
0.0,1.8,1.0,17.96756689974022,1.0166683883728905e-05,1.3793397004283103,0.005000027544065044,0.288653,0.5411396418334177
0.0005,1.79999375,1.0,18.276917161686914,0.00561931896562165,1.379302368570882,0.01294097644465906,0.2886527375,0.5412299527950215
0.001,1.799975,1.0,21.61863827766633,0.011197008337980747,1.3789382758936206,0.035609444203125847,0.28865195,0.5421102776236297
0.0015,1.79994375,1.0,31.069662181928148,0.016743411283866406,1.378046167420227,0.0706028924819584,0.2886506375,0.5442636967438705
0.002,1.7999,1.0,53.58307868861847,0.02225870329453417,1.3763680868683734,0.11471924277087858,0.2886488,0.5483005841423486
0.0025,1.79984375,1.0,97.11992122871244,0.027743058877151245,1.373935119863201,0.16457620403440554,0.28864643749999996,0.5541215756788695
0.003,1.7997750000000001,1.0,160.95949642171257,0.033196651562515264,1.3712142939881495,0.21728180639359604,0.28864354999999997,0.5605865686826521
0.0035,1.79969375,1.0,237.68485659738283,0.03861965390464468,1.3685846872575196,0.27061423329276907,0.2886401375,0.5667899499976929
0.004,1.7996,1.0,321.46842571124193,0.04401223749156122,1.3661560485782178,0.3229171036625936,0.2886362,0.5724800640611791
0.0045000000000000005,1.7994937500000001,1.0,409.2695071662641,0.04937457295047437,1.3639227729377599,0.373035743694366,0.2886317375,0.5776792580908536
0.005,1.799375,1.0,499.4153204091816,0.054706829938869925,1.3618583037518692,0.4202486177627754,0.28862675,0.5824571683859054
0.0055,1.79924375,1.0,590.7922765054284,0.060009177191985424,1.359938798710493,0.4641747701313351,0.2886212375,0.5868751950983649
0.006,1.7991000000000001,1.0,682.5199884508442,0.06528178246594454,1.3581463805717937,0.5046809480188046,0.2886152,0.5909794964391706
0.006500000000000001,1.79894375,1.0,773.8832256680203,0.07052481259337764,1.3564672200255412,0.5418016619488448,0.2886086375,0.5948058706864234
0.007,1.798775,1.0,864.287708072691,0.07573843346701938,1.3548903643558727,0.5756776045040405,0.28860155,0.5983827464520277
0.0075,1.79859375,1.0,953.2451704194302,0.08092281004944095,1.3534067491211048,0.6065106654321515,0.2885939375,0.6017336405473612
0.008,1.7984,1.0,1040.346946762524,0.08607810598519278,1.3520088157746637,0.634532857562156,0.2885858,0.6048781684212974
0.0085,1.79819375,1.0,1125.3170725049274,0.09120448535741801,1.3506892012239071,0.6599850497111248,0.2885771375,0.607835089747889
0.009000000000000001,1.797975,1.0,1207.9021402990038,0.09630211008708751,1.3494420082733756,0.6831047601341154,0.28856795,0.6106195244064736
0.0095,1.79774375,1.0,1287.8934333668255,0.10137114072547336,1.3482621075583807,0.7041179992270779,0.2885582375,0.6132445932365909
0.01,1.7975,1.0,1365.1682602970498,0.10641173782384766,1.3471443697142338,0.7232347024842285,0.288548,0.6157231714786587
0.0105,1.79724375,1.0,1439.6616326944104,0.11142406130440599,1.3460839196850438,0.740647087344133,0.2885372375,0.6180673486461612
0.011,1.796975,1.0,1511.324469154416,0.11640826991885743,1.345076526097635,0.7565295175378662,0.28852595000000003,0.6202875992869524
0.0115,1.79669375,1.0,1580.122535716773,0.1213645208474631,1.3441184648610704,0.77103896966264,0.2885141375,0.6223931190741716
0.012,1.7964,1.0,1646.0573922981916,0.12629297068757678,1.3432061604918726,0.7843159249343102,0.28850180000000003,0.6243926383942188
0.0125,1.79609375,1.0,1709.1747269236341,0.13119377644294264,1.3423360261530193,0.7964856326212123,0.2884889375,0.626294786982651
0.013000000000000001,1.7957750000000001,1.0,1769.508098798085,0.13606709291055782,1.3415050553177192,0.8076597712771719,0.28847555,0.6281068150269182
0.0135,1.79544375,1.0,1827.093484576084,0.1409130734932097,1.340710573345232,0.8179377212915152,0.2884616375,0.6298351569220768
0.014,1.7951000000000001,1.0,1881.9944815425947,0.14573187159368564,1.3399499055948179,0.8274077661279948,0.2884472,0.6314861660907987
0.0145,1.79474375,1.0,1934.281783084723,0.15052363970255592,1.339220572918644,0.8361484098317028,0.2884322375,0.6330656980508513
0.015,1.794375,1.0,1984.0526149126415,0.15528853079303528,1.3385200480023631,0.8442294182682258,0.28841675,0.6345796463663194
0.0155,1.79399375,1.0,2031.3735651444947,0.16002669478124176,1.3378463398517553,0.8517130308759895,0.2884007375,0.6360326870177688
0.016,1.7936,1.0,2076.315120099378,0.16473828089833747,1.3371975852642184,0.8586547111826397,0.2883842,0.6374291724871817
0.0165,1.7931937500000001,1.0,2118.962035918109,0.16942343837548463,1.3365719210371503,0.8651039093377078,0.2883671375,0.6387734118920991
0.017,1.792775,1.0,2159.3985060405257,0.1740823153939534,1.335967623021416,0.8711048145224473,0.28834955,0.6400693758971294
0.0175,1.7923437500000001,1.0,2197.725485780957,0.1787150609347672,1.33538291290114,0.8766969219162916,0.2883314375,0.641321115223043
0.018000000000000002,1.7919,1.0,2234.0178453865487,0.18332182074785436,1.3348163808500813,0.8819156962051574,0.2883128,0.6425318594210885
0.0185,1.79144375,1.0,2268.349339964019,0.18790273976679028,1.3342667129741463,0.8867929675954285,0.2882936375,0.6437046064970016
0.019,1.790975,1.0,2300.801233678398,0.1924579629251505,1.3337325953792414,0.8913573278909437,0.28827395,0.644842330297945
0.0195,1.79049375,1.0,2331.4523882853405,0.19698763429908336,1.333212805389623,0.8956345235993782,0.2882537375,0.645947788024162
0.02,1.79,1.0,2360.394491533438,0.20149189848746699,1.3327060540442022,0.8996477418264761,0.288233,0.6470238571503075
0.0205,1.78949375,1.0,2387.709204960628,0.2059708985283126,1.3322112049848054,0.9034179468064949,0.2882117375,0.6480730716917845
0.021,1.788975,1.0,2413.4532166719027,0.21042477475102087,1.3317274098718839,0.9069641540351149,0.28818995000000003,0.649097339093403
0.021500000000000002,1.78844375,1.0,2437.6870113043037,0.2148536674849924,1.3312538203658884,0.910303581333339,0.2881676375,0.6500985538679968
0.022,1.7879013589027823,1.0,2460.5386670989496,0.21925771705962788,1.33078958812727,0.9134518435594527,0.28814485707391685,0.6510785981715277
0.0225,1.787357187502062,1.0,2482.516126992488,0.2236370628995565,1.330333899082563,0.9164231302913628,0.28812200187508663,0.6520392701432113
0.023,1.7868130161013414,1.0,2503.732085896257,0.2279918447181945,1.3298863638105551,0.91923043296893,0.28809914667625636,0.6529814635581954
0.0235,1.7862688447006208,1.0,2524.206174098245,0.23232220105897464,1.329446693326585,0.9218856036548869,0.2880762914774261,0.6539058554087345
0.024,1.7857246732999001,1.0,2543.9616293582308,0.23662826746498689,1.329014573330256,0.924399447342471,0.2880534362785958,0.6548131713530279
0.0245,1.7851805018991795,1.0,2563.022598851875,0.2409101794793211,1.3285896895211722,0.9267818348970407,0.28803058107976554,0.6557041324629453
0.025,1.784636330498459,1.0,2581.4140876501465,0.2451680726450673,1.3281717275989366,0.9290417966045814,0.28800772588093526,0.6565794553722237
0.025500000000000002,1.7840921590977383,1.0,2599.1605154264357,0.2494020814600716,1.327760386247553,0.9311876068751526,0.287984870682105,0.6574398252769604
0.026000000000000002,1.7835479876970177,1.0,2616.2768723912627,0.25361233261066657,1.327355458595103,0.9332268679507735,0.2879620154832747,0.6582857261734367
0.0265,1.7830038162962971,1.0,2632.809363140679,0.2577989761757616,1.326956454169217,0.9351665286500518,0.2879391602844445,0.6591182304754233
0.027,1.7824596448955767,1.0,2648.7758338450226,0.26196214091768677,1.3265631525904245,0.9370130127629098,0.2879163050856142,0.6599378423794744
0.0275,1.7819154734948561,1.0,2664.1946410510473,0.26610195559877214,1.3261753334792556,0.9387722360508192,0.28789344988678395,0.6607450632324502
0.028,1.7813713020941355,1.0,2679.0846243550986,0.2702185489813478,1.32579277645624,0.9404496531463412,0.2878705946879537,0.6615403916101225
0.0285,1.780827130693415,1.0,2693.4650801536077,0.2743120498277436,1.3254152611419077,0.942050299556837,0.28784773948912346,0.6623243233926788
0.029,1.7802829592926943,1.0,2707.355736469941,0.2783825869002898,1.3250425671567883,0.9435788293365674,0.2878248842902932,0.6630973518371326
0.029500000000000002,1.7797387878919737,1.0,2720.7767288585383,0.2824302889613163,1.3246744741214116,0.9450395489210303,0.2878020290914629,0.6638599676466354
0.03,1.779194616491253,1.0,2733.748577385444,0.28645528477315313,1.3243107616563077,0.9464364475563155,0.28777917389263263,0.6646126590366888
0.0305,1.7786504450905325,1.0,2746.292164685762,0.29045770309813046,1.323951209382006,0.9477732247032493,0.28775631869380236,0.6653559117982644
0.031,1.778106273689812,1.0,2758.428478071812,0.29443767245823077,1.323595599062189,0.9490533149449727,0.2877334634949721,0.6660902049348948
0.0315,1.7775621022890915,1.0,2770.165596119825,0.29839530925709756,1.3232438318178348,0.9502799211622226,0.2877106082961418,0.6668157691062607
0.032,1.777017930888371,1.0,2781.5355217661054,0.3023307553296065,1.3228955950867534,0.9514560045270112,0.2876877530973116,0.6675332738315416
0.0325,1.7764737594876503,1.0,2792.550399822842,0.3062441316292514,1.3225507581037432,0.9525843379194292,0.2876648978984813,0.6682430116285094
0.033,1.7759295880869297,1.0,2803.222568897096,0.31013555910952606,1.3222091901036028,0.9536675058685969,0.28764204269965105,0.6689452736376924
0.0335,1.775385416686209,1.0,2813.564551723307,0.3140051587239242,1.3218707603211308,0.9547079196213132,0.28761918750082077,0.6696403496501823
0.034,1.7748412452854885,1.0,2823.589045875514,0.3178530514259397,1.3215353379911254,0.9557078308343836,0.2875963323019905,0.6703285281343518
0.0345,1.7742970738847679,1.0,2833.308914858102,0.32167935816906634,1.3212027923483853,0.9566693440309055,0.2875734771031603,0.6710100962614798
0.035,1.7737529024840473,1.0,2842.7371795761064,0.3254841999067979,1.3208729926277087,0.9575944279451329,0.28755062190433,0.6716853399302882
0.035500000000000004,1.7732087310833267,1.0,2851.887010184503,0.32926769759262814,1.3205458080638945,0.9584849258667385,0.28752776670549973,0.6723545437903855
0.036000000000000004,1.7726645596826063,1.0,2860.7717183166906,0.3330299721800509,1.320221107891741,0.9593425650831575,0.28750491150666946,0.6730179912646237
0.0365,1.7721203882818857,1.0,2869.4047496919943,0.3367711446225599,1.3198987613460464,0.960168965508009,0.2874820563078392,0.673675964570361
0.037,1.771576216881165,1.0,2877.7905633418277,0.34049132208365,1.3195787183395946,0.9609656525589544,0.2874592011090089,0.6743285803074683
0.0375,1.7710320454804445,1.0,2885.949562301197,0.34419063984027487,1.3192607884512644,0.9617340514717339,0.28743634591017864,0.6749762402980772
0.038,1.7704878740797239,1.0,2893.891001271692,0.34786921425032286,1.3189448810283175,0.9624755075651826,0.2874134907113484,0.6756191417915574
0.0385,1.7699437026790033,1.0,2901.6222563104943,0.35152715847030946,1.3186309227243636,0.9631912874308758,0.28739063551251814,0.6762574460581017
0.039,1.7693995312782826,1.0,2909.1507737550487,0.35516458565675024,1.3183188401930117,0.9638825835015097,0.28736778031368787,0.676891313705918
0.0395,1.768855359877562,1.0,2916.4840671130073,0.3587816089661607,1.3180085600878713,0.9645505191960142,0.2873449251148576,0.6775209046901747
0.04,1.7683111884768414,1.0,2923.6297140712195,0.36237834155505627,1.3177000090625517,0.9651961536546492,0.2873220699160273,0.6781463783216026
0.0405,1.767767017076121,1.0,2930.5953536247002,0.36595489657995256,1.3173931137706625,0.9658204861007819,0.2872992147171971,0.6787678932747554
0.041,1.7672228456754004,1.0,2937.3886833239994,0.36951138719736504,1.3170878008658127,0.9664244598624167,0.28727635951836683,0.679385607595927
0.0415,1.7666786742746798,1.0,2944.017456642557,0.37304792656380925,1.316783997001612,0.9670089660833083,0.28725350431953656,0.679999678710723
0.042,1.7661345028739592,1.0,2950.4894804630976,0.3765646278358007,1.3164816288316694,0.9675748471506037,0.2872306491207063,0.6806102634312929
0.0425,1.7655903314732386,1.0,2956.8126126830266,0.3800616041698549,1.3161806230095945,0.9681228998633724,0.287207793921876,0.6812175179632165
0.043000000000000003,1.765046160072518,1.0,2962.989977539073,0.38353895536952487,1.3158809479112783,0.9686538796201885,0.28718493872304574,0.6818215138605621
0.043500000000000004,1.7645019886717974,1.0,2969.0307884182685,0.3869968022615235,1.3155825190801917,0.9691685009173266,0.28716208352421546,0.6824224287340575
0.044,1.7639578172710768,1.0,2974.9438602414266,0.3904352640741814,1.3152852559667412,0.96966744082644,0.28713922832538524,0.6830204316644978
0.0445,1.7634136458703564,1.0,2980.7331978727516,0.3938544457495375,1.3149891202622228,0.9701513424294503,0.28711637312655497,0.6836156062386192
0.045,1.7628694744696358,1.0,2986.402831942567,0.3972544522296304,1.314694073657932,0.970620815836241,0.2870935179277247,0.6842080357288778
0.0455,1.7623253030689152,1.0,2991.956817905421,0.400635388456499,1.314400077845165,0.9710764401964443,0.2870706627288944,0.684797803096155
0.046,1.7617811316681946,1.0,2997.3992351317306,0.40399735937218195,1.3141070945152173,0.9715187655696813,0.2870478075300642,0.6853849909923735
0.0465,1.761236960267474,1.0,3002.7341860310294,0.4073404699187181,1.313815085359385,0.9719483146654873,0.28702495233123393,0.6859696817630161
0.047,1.7606927888667534,1.0,3007.96579520886,0.4106648250381461,1.3135240120689637,0.9723655844631629,0.28700209713240366,0.6865519574495544
0.0475,1.7601486174660328,1.0,3013.098208655167,0.4139705296725048,1.3132338363352496,0.9727710477209013,0.2869792419335734,0.6871318997917796
0.048,1.7596044460653122,1.0,3018.1355929659903,0.41725768876383296,1.312944519849538,0.9731651543827295,0.2869563867347431,0.6877095902300452
0.0485,1.7590602746645916,1.0,3023.08213459707,0.42052640725416923,1.3126560243031253,0.9735483328910804,0.28693353153591283,0.6882851099074092
0.049,1.7585161032638712,1.0,3027.94203915072,0.4237767900855525,1.3123683113873068,0.9739209914121353,0.28691067633708256,0.6888585396716917
0.0495,1.7579719318631506,1.0,3032.719530694407,0.4270089422000215,1.3120813427933788,0.9742835189804896,0.28688782113825234,0.6894299600774285
0.05,1.75742776046243,1.0,3037.416128132723,0.43022295333991006,1.31179510367542,0.9746362863728314,0.28686496593942207,0.6899994047322515
0.0505,1.7568835890617094,1.0,3042.0352427230596,0.43341892875298194,1.3115095629710591,0.9749796480526919,0.2868421107405918,0.6905669393417722
0.051000000000000004,1.7563394176609888,1.0,3046.5836205006312,0.4365969925865854,1.3112246610498375,0.9753139425737702,0.2868192555417615,0.6911326860791256
0.051500000000000004,1.7557952462602682,1.0,3051.0632394707427,0.43975724096840346,1.3109403794762753,0.9756394927315454,0.28679640034293125,0.6916966849845343
0.052000000000000005,1.7552510748595476,1.0,3055.4760865488906,0.44289977002611897,1.310656699814892,0.9759566069116875,0.286773545144101,0.6922589759570155
0.0525,1.754706903458827,1.0,3059.824157310728,0.4460246758874148,1.3103736036302078,0.9762655798585539,0.28675068994527075,0.6928195987550978
0.053,1.7541627320581064,1.0,3064.109455750221,0.44913205467997386,1.310091072486742,0.9765666933962789,0.2867278347464405,0.6933785929975194
0.0535,1.753618560657386,1.0,3068.333994044647,0.4522220025314791,1.3098090879490147,0.9768602171057557,0.2867049795476102,0.693935998163902
0.054,1.7530743892566654,1.0,3072.499792327546,0.45529461556961337,1.3095276315815456,0.9771464089605705,0.28668212434877993,0.6944918535954049
0.0545,1.7525302178559448,1.0,3076.6088784688213,0.45834998992205955,1.3092466849488547,0.9774255159247017,0.28665926914994966,0.6950461984953566
0.055,1.7519860464552242,1.0,3080.6632878630076,0.4613882217165005,1.3089662296154614,0.9776977745145843,0.2866364139511194,0.6955990719298661
0.0555,1.7514418750545035,1.0,3084.6650632244073,0.4644094070806192,1.3086862471458858,0.9779634113279512,0.28661355875228917,0.6961505128284092
0.056,1.750897703653783,1.0,3088.616254389977,0.46741364214209846,1.3084067191046476,0.9782226435416667,0.2865907035534589,0.6967005599843974
0.0565,1.7503535322530623,1.0,3092.518918130159,0.47040102302862125,1.3081276270562663,0.9784756793806195,0.2865678483546286,0.6972492520557223
0.057,1.7498093608523417,1.0,3096.3751179665255,0.4733716458678704,1.3078489525652621,0.978722718559572,0.28654499315579834,0.6977966275652774
0.0575,1.7492651894516211,1.0,3100.186923997581,0.4763256067875289,1.3075706771961548,0.9789639526997427,0.28652213795696807,0.6983427249014629
0.058,1.7487210180509007,1.0,3103.956412731995,0.4792630019152795,1.307292782513464,0.9791995657217489,0.28649928275813785,0.6988875823186638
0.0585,1.7481768466501801,1.0,3107.6814462626194,0.4821838758266371,1.3070152860359368,0.979429731859422,0.2864764275593076,0.6994311675391325
0.059000000000000004,1.7476326752494595,1.0,3111.3676042311986,0.4850883785269344,1.306738139545126,0.9796546237016837,0.2864535723604773,0.6999735770038098
0.059500000000000004,1.747088503848739,1.0,3115.01683853459,0.48797661045823243,1.3064613258113706,0.9798744045973612,0.28643071716164703,0.7005148462434214
0.06,1.7465443324480183,1.0,3118.6300197993373,0.49084865797568356,1.3061848368465976,0.9800892309010549,0.28640786196281676,0.701054992618694
0.0605,1.7460001610472977,1.0,3122.208021542281,0.4937046074344405,1.3059086646627336,0.9802992529562838,0.2863850067639865,0.7015940334319618
0.061,1.745455989646577,1.0,3125.751720114238,0.49654454518965574,1.3056328012717053,0.9805046153726985,0.2863621515651562,0.7021319859273287
0.0615,1.7449118182458565,1.0,3129.2619946441823,0.49936855759648174,1.30535723868544,0.9807054572884673,0.286339296366326,0.7026688672908268
0.062,1.744367646845136,1.0,3132.7397269852627,0.5021767310100711,1.305081968915864,0.9809019126187319,0.2863164411674957,0.7032046946505734
0.0625,1.7438234754444155,1.0,3136.1858016626593,0.5049691517855763,1.3048069839749041,0.9810941102909754,0.28629358596866544,0.7037394850769214
0.063,1.743279304043695,1.0,3139.6011058219,0.50774590627815,1.3045322758744877,0.9812821744680804,0.28627073076983517,0.704273255582605
0.0635,1.7427351326429743,1.0,3142.986529179654,0.5105070808429446,1.304257836626541,0.9814662247598127,0.28624787557100495,0.7048060231228863
0.064,1.7421909612422537,1.0,3146.342963974737,0.5132527618351127,1.3039836582429911,0.9816463764234077,0.2862250203721747,0.70533780459569
0.0645,1.741646789841533,1.0,3149.671304921942,0.5159830356098067,1.3037097327357647,0.9818227405539001,0.2862021651733444,0.7058686168417423
0.065,1.7411026184408125,1.0,3152.9724491659495,0.5186979885221794,1.303436052116789,0.98199542426479,0.28617930997451413,0.7063984766446982
0.0655,1.7405584470400919,1.0,3156.247296237704,0.5213977069273831,1.3031626083979901,0.9821645308596054,0.28615645477568386,0.706927400731272
0.066,1.7400142756393713,1.0,3159.496748011435,0.5240822771805704,1.3028893935912953,0.9823301599948776,0.2861335995768536,0.7074554057713566
0.0665,1.7394701042386507,1.0,3162.721708663439,0.526751785636894,1.3026163997086313,0.9824924078350221,0.2861107443780233,0.7079825083781438
0.067,1.7389259328379303,1.0,3165.923084632532,0.5294063186515062,1.302343618761925,0.9826513671995799,0.2860878891791931,0.7085087251082389
0.0675,1.7383817614372097,1.0,3169.1017845810607,0.5320459625795596,1.3020710427631033,0.9828071277032444,0.2860650339803628,0.7090340724617712
0.068,1.737837590036489,1.0,3172.2587193586037,0.5346708037762068,1.3017986637240926,0.9829597758890818,0.28604217878153254,0.7095585668825002
0.0685,1.7372934186357685,1.0,3175.394657138579,0.5372809242427876,1.3015264748773236,0.9831093951415738,0.28601932358270227,0.7100822224108887
0.069,1.7367492472350479,1.0,3178.508423242008,0.5398763558938291,1.3012544858356434,0.9832560637136007,0.285996468383872,0.7106050215685655
0.0695,1.7362050758343273,1.0,3181.6028185176174,0.542457253700063,1.3009826727249592,0.9833998632084179,0.2859736131850418,0.7111270112223856
0.07,1.7356609044336067,1.0,3184.678216612559,0.545023694282814,1.3007110321444235,0.9835408686850995,0.2859507579862115,0.7116481988094244
