Time [s],Phi [rad],STIM [ ],Fsee [N],Gamma [ ],Lcerel [ ],q [ ],Lmtc [m],fisomrel [ ]
0.0,1.8,1.0,21.011142724647968,0.0017846681913165979,1.3790120546951476,0.005813497855074814,0.288653,0.5419319591701608
0.0005,1.79999375,1.0,21.796703688560758,0.007383866922711008,1.3789285942786027,0.018590414060953745,0.2886527375,0.5421336748662058
0.001,1.799975,1.0,26.479896433165997,0.012951658576297624,1.3784669277427024,0.04544193631510391,0.28865195,0.5432486753985972
0.0015,1.79994375,1.0,39.11325476921149,0.01848821932171162,1.3774002851825755,0.0836721516505965,0.2886506375,0.5458195942095366
0.002,1.7999,1.0,67.68639091541868,0.023993724338695385,1.3755065264426258,0.12994859050288574,0.2886488,0.5503662263998519
0.0025,1.79984375,1.0,118.14331668104715,0.029468347825877587,1.3729716459483545,0.180986761548762,0.28864643749999996,0.5564162988474977
0.003,1.7997750000000001,1.0,186.68501457851747,0.03491226300339045,1.3702870442884385,0.2341077159387274,0.28864354999999997,0.562779033265727
0.0035,1.79969375,1.0,265.88698094174424,0.04032564212191621,1.3677403344507348,0.28727577949806615,0.2886401375,0.5687724694453498
0.004,1.7996,1.0,350.9771837164644,0.04570865646257977,1.3653916333310012,0.33899763341328376,0.2886362,0.5742632471036453
0.0045000000000000005,1.7994937500000001,1.0,439.48818690216746,0.05106147631308558,1.3632260584418063,0.38826418790620226,0.2886317375,0.5792947400154003
0.005,1.799375,1.0,530.0038563088999,0.05638427115499144,1.3612179604264287,0.4344715265898251,0.28862675,0.5839336258462084
0.0055,1.79924375,1.0,621.472714158819,0.06167720931865936,1.3593469646922238,0.47732689279513074,0.2886212375,0.5882326497655792
0.006,1.7991000000000001,1.0,713.0577790194727,0.06694045820225548,1.3575973595609174,0.5167579277884389,0.2886152,0.5922325524077167
0.006500000000000001,1.79894375,1.0,804.1077049100179,0.07217418449038285,1.3559562106478023,0.5528382339198985,0.2886086375,0.5959667605269688
0.007,1.798775,1.0,894.044543482169,0.07737855363571615,1.3544137641813376,0.5857322082997648,0.28860155,0.5994607262717322
0.0075,1.79859375,1.0,982.4212173216201,0.08255373052108797,1.3529613740501631,0.6156539586964456,0.2885939375,0.6027368253463674
0.008,1.7984,1.0,1068.85398758633,0.08769987864676865,1.3515919411566464,0.6428403307569379,0.2885858,0.6058134786788945
0.0085,1.79819375,1.0,1153.0591593921201,0.09281716090228302,1.3502988668196774,0.6675324224703744,0.2885771375,0.6087076017374042
0.009000000000000001,1.797975,1.0,1234.819915864064,0.09790573947693924,1.3490762357241153,0.689964610088172,0.28856795,0.6114342527190113
0.0095,1.79774375,1.0,1313.9577530620209,0.10296577494768382,1.3479189346533438,0.7103581707699183,0.2885582375,0.6140064250946502
0.01,1.7975,1.0,1390.3550188399881,0.10799742727838638,1.346822131421323,0.7289176884402326,0.288548,0.6164362536874064
0.0105,1.79724375,1.0,1463.9665500952785,0.11300085673628506,1.3457809983741218,0.7458296656687825,0.2885372375,0.6187356542200115
0.011,1.796975,1.0,1534.7343047097077,0.11797622090468793,1.3447916639095325,0.7612629994505492,0.28852595000000003,0.6209142490385713
0.0115,1.79669375,1.0,1602.634280949219,0.12292367677474061,1.3438504786006278,0.7753693485210316,0.2885141375,0.6229810215756353
0.012,1.7964,1.0,1667.6840130458536,0.1278433810763859,1.3429538507348429,0.7882842370512483,0.28850180000000003,0.6249446947262217
0.0125,1.79609375,1.0,1729.9264989897574,0.13273549010322724,1.3420983765672871,0.8001284859291454,0.2884889375,0.6268134590243195
0.013000000000000001,1.7957750000000001,1.0,1789.4027135210931,0.13760015867693404,1.341281089854315,0.8110097253344901,0.28847555,0.6285944442214635
0.0135,1.79544375,1.0,1846.1517675943646,0.14243753994553873,1.3404993885502772,0.8210237288998607,0.2884616375,0.6302938979492583
0.014,1.7951000000000001,1.0,1900.2391568748121,0.14724778705707395,1.3397506706095241,0.8302555741333585,0.2884472,0.6319179904986564
0.0145,1.79474375,1.0,1951.7339511871774,0.1520310520416199,1.3390325544197574,0.8387809330620788,0.2884322375,0.6334723438890759
0.015,1.794375,1.0,2000.7404523617408,0.15678748786480814,1.3383425062499616,0.8466670343490125,0.28841675,0.6349628458689244
0.0155,1.79399375,1.0,2047.321288309982,0.16151724389764183,1.3376786366760878,0.853973911606012,0.2884007375,0.6363939360094985
0.016,1.7936,1.0,2091.548344404008,0.16622046917116587,1.337039118497687,0.8607550624099619,0.2883842,0.6377698743695857
0.0165,1.7931937500000001,1.0,2133.507223040634,0.17089731271642522,1.3364221245143109,0.8670582038576516,0.2883671375,0.6390948792642779
0.017,1.792775,1.0,2173.28171751889,0.17554792243198883,1.3358259736818257,0.8729259984208328,0.28834955,0.6403728169663704
0.0175,1.7923437500000001,1.0,2210.97311014027,0.18017244710228236,1.3352489188040344,0.8783965910795001,0.2883314375,0.6416076608441517
0.018000000000000002,1.7919,1.0,2246.655439710494,0.18477103215553134,1.3346895877621243,0.8835042547089825,0.2883128,0.6428025505217452
0.0185,1.79144375,1.0,2280.4020641478683,0.1893438222583029,1.3341466962208746,0.8882797636273685,0.2882936375,0.6439604126424572
0.019,1.790975,1.0,2312.293551662043,0.19389096207716422,1.333618959845064,0.8927507751611322,0.28827395,0.6450841506119182
0.0195,1.79049375,1.0,2342.411278099857,0.19841259548399848,1.3331051511309564,0.8969421991785845,0.2882537375,0.6461765251595112
0.02,1.79,1.0,2370.840163643805,0.2029088666683813,1.3326040654077271,0.9008765013575248,0.288233,0.6472402285531007
0.0205,1.78949375,1.0,2397.6586629189414,0.2073799186340336,1.3321146122711442,0.9045739957820883,0.2882117375,0.6482776923341439
0.021,1.788975,1.0,2422.928676179191,0.21182589141416333,1.331635905346863,0.9080530999151377,0.28818995000000003,0.6492909001427505
0.021500000000000002,1.78844375,1.0,2446.7158784008066,0.21624692504197832,1.3311670582605386,0.9113304987729629,0.2881676375,0.6502818224587406
0.022,1.7879,1.0,2469.0894058646672,0.22064315955068636,1.3307071846378271,0.9144213317983023,0.2881448,0.6512524171840629
0.0225,1.78734375,1.0,2490.1163318892145,0.22501473397879318,1.330255447859212,0.9173393666760408,0.28812143749999997,0.6522045253804571
0.023,1.786775,1.0,2509.864261885558,0.22936178748852526,1.3298110328398312,0.9200971383816988,0.28809755,0.6531399318148081
0.0235,1.78619375,1.0,2528.4041060402005,0.23368445967208995,1.3293731171071694,0.922706071574663,0.28807313749999996,0.6540604264257235
0.024,1.7856,1.0,2545.78509168319,0.23798288544933707,1.3289411039714332,0.9251766337209404,0.2880482,0.6549673154274707
0.0245,1.78499375,1.0,2562.0582316214127,0.24225719974011647,1.3285143967428292,0.9275183929838148,0.2880227375,0.6558618977445632
0.025,1.784375,1.0,2577.2761753144655,0.246507537464278,1.328092398731564,0.9297401078051997,0.28799675,0.6567454652250269
0.025500000000000002,1.78374375,1.0,2591.4930679445306,0.2507340335416715,1.3276745132478438,0.9318498064735734,0.2879702375,0.6576193028309587
0.026000000000000002,1.7831000000000001,1.0,2604.758752370494,0.2549368215263869,1.3272601963132098,0.9338548658166383,0.2879432,0.6584845787915796
0.0265,1.78244375,1.0,2617.1223359774003,0.2591160352433044,1.3268489217651331,0.9357620684857646,0.2879156375,0.6593424181791132
0.027,1.781775,1.0,2628.640711049449,0.2632718097182493,1.3264401011439726,0.9375776469555969,0.28788755,0.6601940700418143
0.0275,1.7810937500000001,1.0,2639.3501951237963,0.2674042743571561,1.3260333455611475,0.9393073714625023,0.2878589375,0.6610403621881549
0.028,1.7804,1.0,2649.287856544987,0.2715135585659592,1.3256282661280767,0.9409565647435311,0.2878298,0.661882118298541
0.0285,1.77969375,1.0,2658.4914496622546,0.2755997917505933,1.3252244739561798,0.9425301425984501,0.2878001375,0.6627201579717032
0.029,1.778975,1.0,2666.9993533801153,0.2796631033169928,1.3248215801568757,0.944032650286757,0.28776995,0.663555296761449
0.029500000000000002,1.7782437500000001,1.0,2674.850513061632,0.2837036226710922,1.3244191958415836,0.9454682952326969,0.2877392375,0.6643883462037634
0.03,1.7775,1.0,2682.078053656372,0.2877214766997377,1.3240169901849455,0.9468409832879526,0.287708,0.6652199938504113
0.0305,1.77674375,1.0,2688.7212326294857,0.29171679552793367,1.3236145801267356,0.9481543321365404,0.2876762375,0.6660510316626168
0.031,1.775975,1.0,2694.811907079494,0.2956897058506768,1.3232116540853944,0.9494117093750859,0.28764395,0.6668821003296663
0.0315,1.7751937500000001,1.0,2700.375779552506,0.2996403315821687,1.322807959796407,0.9506162520123417,0.2876111375,0.6677137152170958
0.032,1.7744,1.0,2705.438830203222,0.303568796636611,1.3224032449952579,0.9517708790711581,0.2875778,0.6685463890833155
0.0325,1.77359375,1.0,2710.027290223249,0.3074752249282054,1.3219972574174312,0.9528783093983074,0.2875439375,0.6693806320652185
0.033,1.772775,1.0,2714.167616680481,0.31135974037115344,1.3215897447984124,0.9539410778146932,0.28750955,0.670216951659732
0.0335,1.7719437500000002,1.0,2717.8864687696428,0.3152224668796567,1.3211804548736854,0.9549615497782941,0.2874746375,0.6710558527013155
0.034,1.7711000000000001,1.0,2721.201963672587,0.31906352039189295,1.3207692147773276,0.9559419414601543,0.2874392,0.6718976749079615
0.0345,1.7702437500000001,1.0,2724.1501320687366,0.32288303417848935,1.3203556899301891,0.9568843114420584,0.2874032375,0.6727430865094148
0.035,1.7693750000000001,1.0,2726.749662846707,0.32668112771271657,1.3199397049173724,0.9577905995113308,0.28736675,0.673592427351354
0.035500000000000004,1.76849375,1.0,2729.017221064116,0.33045791859930884,1.319521103692369,0.9586626237624505,0.2873297375,0.6744459958393187
0.036000000000000004,1.7676,1.0,2730.9695634851314,0.33421352444300045,1.3190997302086709,0.9595020881550809,0.2872922,0.6753040885865863
0.0365,1.76669375,1.0,2732.6235283708365,0.33794806284852563,1.3186754284197697,0.9603105909724375,0.2872541375,0.6761670003873604
0.037,1.765775,1.0,2733.9960258095725,0.34166165142061866,1.3182480422791567,0.96108963256149,0.28721555,0.6770350241884059
0.0375,1.76484375,1.0,2735.1040285872086,0.3453544077640138,1.317817415740324,0.9618406224232773,0.2871764375,0.6779084510591266
0.038,1.7639,1.0,2735.964563597066,0.3490264494834454,1.317383392756763,0.9625648857144787,0.28713679999999997,0.6787875701600965
0.0385,1.76294375,1.0,2736.5947037901583,0.3526778941836476,1.316945817281966,0.9632636692150482,0.28709663750000003,0.6796726687100341
0.039,1.761975,1.0,2737.005386507488,0.3563088517712394,1.3165045893131475,0.9639381504825917,0.28705595,0.6805639188256245
0.0395,1.7609937500000001,1.0,2737.2130007847213,0.35991944351114935,1.3160595596414844,0.9645894367202784,0.2870147375,0.6814615904312213
0.04,1.76,1.0,2737.234179079678,0.36350979004185935,1.3156105770879885,0.9652185715214872,0.286973,0.6823659554534022
0.0405,1.7589937500000001,1.0,2737.0782211959063,0.36708000172186855,1.3151575572183511,0.9658265434790649,0.2869307375,0.6832771496433729
0.041,1.757975,1.0,2736.754443689825,0.3706301889096761,1.3147004155982638,0.9664142859393259,0.28688795,0.6841953074690053
0.0415,1.75694375,1.0,2736.2721769398163,0.37416046196378117,1.3142390677934173,0.9669826806596263,0.2868446375,0.6851205620928702
0.042,1.7559,1.0,2735.6407623733385,0.37767093124268303,1.3137734293695034,0.9675325611874104,0.28680079999999997,0.6860530453498128
0.0425,1.75484375,1.0,2734.869549852345,0.38116170710488073,1.313303415892213,0.968064715984574,0.2867564375,0.6869928877240785
0.043000000000000003,1.753775,1.0,2733.967895216068,0.3846328999088736,1.3128289429272377,0.9685798913187427,0.28671155,0.6879402183259791
0.043500000000000004,1.75269375,1.0,2732.945157983088,0.38808462001316074,1.3123499260402685,0.9690787939410251,0.28666613750000003,0.6888951648681085
0.044,1.7516,1.0,2731.8106992099843,0.39151697777624134,1.3118662807969965,0.9695620935679983,0.2866202,0.6898578536410999
0.0445,1.75049375,1.0,2730.5738795094335,0.3949300835566146,1.3113779227631135,0.9700304251840309,0.2865737375,0.6908284094889303
0.045,1.7493750000000001,1.0,2729.2372887795295,0.3983240335923578,1.3108848290298483,0.9704843938481178,0.28652675,0.6918068337980932
0.0455,1.74824375,1.0,2727.8117835210683,0.4016989471284735,1.3103869015532617,0.9709245715001207,0.2864792375,0.6927932759699167
0.046,1.7471,1.0,2726.308053279751,0.4050549411191827,1.3098840437486077,0.9713515010584236,0.2864312,0.6937878808354943
0.0465,1.7459437500000001,1.0,2724.7303909204043,0.40839211787991225,1.3093762171527168,0.9717657006616309,0.28638263750000004,0.6947906768503669
0.047,1.744775,1.0,2723.0830875740035,0.4117105797260888,1.3088633833024201,0.9721676629213565,0.28633355,0.6958016915018568
0.0475,1.74359375,1.0,2721.370432077832,0.4150104289731392,1.308345503734548,0.9725578564163947,0.28628393750000003,0.6968209512968364
0.048,1.7424,1.0,2719.5967104468655,0.4182917679364902,1.3078225399859311,0.9729367270859549,0.2862338,0.6978484817493936
0.0485,1.74119375,1.0,2717.766205379994,0.42155469893156844,1.3072944535934004,0.9733046995296489,0.2861831375,0.6988843073684105
0.049,1.739975,1.0,2715.883195797269,0.4247993242738007,1.306761206093786,0.9736621782212747,0.28613195,0.6999284516450437
0.0495,1.73874375,1.0,2713.951956411069,0.4280257462786138,1.3062227590239193,0.9740095486428507,0.2860802375,0.7009809370401106
0.05,1.7375,1.0,2711.9767573297404,0.4312340672614344,1.3056790739206303,0.9743471783448143,0.286028,0.7020417849713834
0.0505,1.73624375,1.0,2709.961863693869,0.43442438953768925,1.3051301123207497,0.9746754179378141,0.2859752375,0.7031110158007866
0.051000000000000004,1.734975,1.0,2707.911535345425,0.4375968154228051,1.3045758357611086,0.9749946020210812,0.28592195,0.7041886488214995
0.051500000000000004,1.73369375,1.0,2705.830026529998,0.44075144723220877,1.3040162057785374,0.9753050500519629,0.2858681375,0.7052747022449681
0.052000000000000005,1.7324,1.0,2703.721658698667,0.44388838483206466,1.3034511832425537,0.9756070668567888,0.2858138,0.7063691944792541
0.0525,1.73109375,1.0,2701.5910853337023,0.44700770771131615,1.3028807259323585,0.9759009413905133,0.28575893750000003,0.7074721487840803
0.053,1.729775,1.0,2699.439638373422,0.45010954805936143,1.3023048219228393,0.9761869572547225,0.28570355000000003,0.7085835288335474
0.0535,1.72844375,1.0,2697.2692246668603,0.45319399981914577,1.3017234540155151,0.9764653813850109,0.2856476375,0.7097033077071024
0.054,1.7271,1.0,2695.0817482697767,0.45626115693361446,1.3011366050119058,0.9767364691844459,0.2855912,0.7108314576591309
0.0545,1.7257437500000001,1.0,2692.8791103784897,0.45931111334571284,1.300544257713531,0.977000465116512,0.2855342375,0.7119679501129548
0.055,1.724375,1.0,2690.6632092709206,0.46234396299838626,1.2999463949219103,0.9772576032627601,0.28547675,0.7131127556548131
0.0555,1.72299375,1.0,2688.435940253837,0.4653597998345801,1.299342999438563,0.9775081078475377,0.2854187375,0.7142658440278205
0.056,1.7216,1.0,2686.199195616495,0.4683587177972396,1.2987340540650092,0.9777521937320033,0.2853602,0.7154271841259061
0.0565,1.72019375,1.0,2683.9548645911905,0.4713408108293101,1.298119541602768,0.9779900668794543,0.28530113749999997,0.7165967439877408
0.057,1.718775,1.0,2681.7048333203747,0.474306172873737,1.297499444853359,0.9782219247938589,0.28524155,0.7177744907906353
0.0575,1.71734375,1.0,2679.450984829675,0.4772548978734656,1.2968737466183022,0.978447956933334,0.2851814375,0.7189603908444262
0.058,1.7159,1.0,2677.1951990083826,0.48018707977144115,1.2962424296991168,0.9786683451001945,0.2851208,0.7201544095853438
0.0585,1.71444375,1.0,2674.939352596015,0.4831028125106091,1.2956054768973226,0.9788832638090742,0.2850596375,0.7213565115698548
0.059000000000000004,1.7129750000000001,1.0,2672.685319175301,0.4860021900339147,1.294962871014439,0.9790928806345146,0.28499795,0.7225666604684932
0.059500000000000004,1.71149375,1.0,2670.4349691722177,0.4888853062843033,1.2943145948519856,0.9792973565393207,0.2849357375,0.723784819059667
0.06,1.71,1.0,2668.184661485949,0.4917522241976245,1.2936606818525422,0.9794968464010003,0.284873,0.7250108543810586
0.0605,1.7084937500000001,1.0,2665.9340906241628,0.49460304068371397,1.293001134836362,0.9796915002242911,0.2848097375,0.7262446906396813
0.061,1.7069750000000001,1.0,2663.6914469225358,0.497437891225223,1.2923358784564212,0.9798814611211871,0.28474595,0.727486397216558
0.0615,1.7054437500000001,1.0,2661.4569532804653,0.5002568601597537,1.2916649105798128,0.9800668665277072,0.2846816375,0.7287359054096614
0.062,1.7039,1.0,2659.2308322374624,0.5030600318249081,1.2909882290736299,0.9802478486805534,0.2846168,0.7299931458564819
0.0625,1.70234375,1.0,2657.0133059753944,0.5058474905582886,1.2903058318049658,0.9804245348511175,0.2845514375,0.731258048533249
0.063,1.7007750000000001,1.0,2654.8045963225222,0.5086193206974972,1.2896177166409135,0.9805970475672597,0.28448555,0.7325305427541566
0.0635,1.69919375,1.0,2652.604924756694,0.5113756065801358,1.2889238814485662,0.9807655048235854,0.28441913750000003,0.7338105571705832
0.064,1.6976,1.0,2650.414512408447,0.5141164325438069,1.2882243240950169,0.9809300202808958,0.2843522,0.7350980197703147
0.0645,1.69599375,1.0,2648.233580065278,0.5168418829261124,1.2875190424473588,0.9810907034554459,0.2842847375,0.7363928578767662
0.065,1.694375,1.0,2646.062348174785,0.5195520420646547,1.286808034372685,0.9812476598985971,0.28421675,0.7376949981482037
0.0655,1.69274375,1.0,2643.9010368486847,0.5222469942970355,1.286091297738089,0.9814009913674225,0.2841482375,0.7390043665769648
0.066,1.6911,1.0,2641.749865866645,0.5249268239608573,1.2853688304106634,0.9815507959867776,0.2840792,0.74032088848868
0.0665,1.6894437500000001,1.0,2639.609054680534,0.527591615393722,1.2846406302575015,0.9816971684033217,0.2840096375,0.7416444885414933
0.067,1.687775,1.0,2637.478822417871,0.530241452933232,1.2839066951456966,0.9818401999319467,0.28393955,0.7429750907252823
0.0675,1.68609375,1.0,2635.359387886798,0.5328764209169891,1.2831670229423418,0.9819799786950318,0.2838689375,0.7443126183608779
0.068,1.6844000000000001,1.0,2633.2509695799868,0.5354966036825957,1.28242161151453,0.9821165897549311,0.2837978,0.7456569940992855
0.0685,1.68269375,1.0,2631.153785678816,0.5381020855676538,1.2816704587293544,0.982250115240059,0.2837261375,0.7470081399209028
0.069,1.680975,1.0,2629.068054058411,0.5406929509097655,1.2809135624539083,0.9823806344649315,0.28365395,0.7483659771347391
0.0695,1.67924375,1.0,2626.9939922918293,0.5432692840465331,1.2801509205552846,0.9825082240444883,0.28358123749999997,0.749730426377636
0.07,1.6775,1.0,2624.931817654858,0.5458311693155585,1.2793825309005769,0.9826329580030057,0.283508,0.7511014076134829
0.07050000000000001,1.67574375,1.0,2622.8817471309726,0.5483786910544441,1.2786083913568775,0.9827549078778917,0.2834342375,0.7524788401324394
0.07100000000000001,1.673975,1.0,2620.8409517571754,0.5509118963189812,1.277828528043213,0.9828741418433135,0.28335995,0.7538625924915232
0.07150000000000001,1.67219375,1.0,2618.8131528299145,0.553430903225747,1.2770429063351278,0.9829907273616598,0.2832851375,0.755252640463602
0.07200000000000001,1.6704,1.0,2616.7988101742767,0.5559357953681837,1.2762515218323862,0.9831047289477064,0.2832098,0.7566489052464626
0.0725,1.66859375,1.0,2614.797655595159,0.5584266480776044,1.2754543768898228,0.9832162088199031,0.2831339375,0.7580512954471922
0.073,1.6667750000000001,1.0,2612.809421375047,0.5609035366853217,1.2746514738622732,0.9833252271785714,0.28305755,0.7594597190857177
0.0735,1.66494375,1.0,2610.833840268185,0.5633665365226483,1.2738428151045722,0.9834318422831323,0.2829806375,0.7608740835956731
0.074,1.6631,1.0,2608.870645494552,0.565815722920897,1.2730284029715548,0.9835361105258843,0.2829032,0.7622942958252623
0.0745,1.6612437500000001,1.0,2606.91957073437,0.5682511712113804,1.2722082398180565,0.9836380865025093,0.2828252375,0.7637202620381232
0.075,1.659375,1.0,2604.9803501224587,0.5706729567254113,1.2713823279989123,0.983737823079469,0.28274675,0.7651518879141926
