Time [s],Phi [rad],STIM [ ],Fsee [N],Gamma [ ],Lcerel [ ],q [ ],Lmtc [m],fisomrel [ ]
0.0,1.8,1.0,17.967635873476514,1.6874581920226095e-05,1.3793396927010404,0.005000075578613179,0.288653,0.5411396605276794
0.0005,1.79999375,1.0,18.279241096932086,0.005625989237657383,1.3793021104363394,0.012959609905507239,0.2886527375,0.541230577227484
0.001,1.799975,1.0,21.62595916901033,0.011203641195064002,1.3789375282400542,0.03564440713111698,0.28865195,0.5421120844748664
0.0015,1.79994375,1.0,31.087597220968778,0.016750006935868873,1.3780446396474118,0.07065074799730947,0.2886506375,0.5442673802100084
0.002,1.7999,1.0,53.62220796099111,0.02226526195013817,1.376365548842448,0.11477591769141274,0.2886488,0.5483066761623817
0.0025,1.79984375,1.0,97.18605442512246,0.02774958074388728,1.3739319336207643,0.16463786217347065,0.28864643749999996,0.55412917416657
0.003,1.7997750000000001,1.0,161.0457651027442,0.033203136846734815,1.371211065315209,0.21734541774622504,0.28864354999999997,0.5605942123327413
0.0035,1.79969375,1.0,237.78245009607755,0.03862610281154328,1.3685816814377552,0.27067750376497096,0.2886401375,0.5667970156521595
0.004,1.7996,1.0,321.57232478542,0.04401865022518874,1.3661532969179868,0.3229783683335546,0.2886362,0.5724864896558948
0.0045000000000000005,1.7994937500000001,1.0,409.3771416125955,0.049380949713748915,1.363920246518556,0.37309390107730783,0.2886317375,0.5776851217279126
0.005,1.799375,1.0,499.5251732493582,0.05471317093360457,1.361855969520736,0.42030302915957746,0.28862675,0.5824625552366334
0.0055,1.79924375,1.0,590.9031457221699,0.06001548261865062,1.359936632699885,0.4642251468917505,0.2886212375,0.5868801672215183
0.006,1.7991000000000001,1.0,682.6310263065219,0.06528805252411068,1.3581443622839966,0.5047272439192869,0.2886152,0.59098410639091
0.006500000000000001,1.79894375,1.0,773.9959272268889,0.07053104748182919,1.3564652962084716,0.5418439669397205,0.2886086375,0.5948102442570364
0.007,1.798775,1.0,864.400686992394,0.07574463338224599,1.3548885394459373,0.5757161408637538,0.28860155,0.5983868768173768
0.0075,1.79859375,1.0,953.3572036294754,0.08092897519201092,1.3534050259869486,0.6065457051814105,0.2885939375,0.6017375242575389
0.008,1.7984,1.0,1040.468114673281,0.08608423691185578,1.3520070318633726,0.6345645959309731,0.2885858,0.6048821732102634
0.0085,1.79819375,1.0,1125.428110239539,0.09121058175671183,1.3506876293785954,0.6600139399811326,0.2885771375,0.6078386052322096
0.009000000000000001,1.797975,1.0,1207.989784486375,0.09630817180647899,1.349440810742434,0.6831311683542037,0.28856795,0.6106221932004796
0.0095,1.79774375,1.0,1287.9773987704302,0.10137716842636926,1.3482609964901875,0.7041420241286945,0.2885582375,0.6132470609810639
0.01,1.7975,1.0,1365.2585820234078,0.10641773196459084,1.3471432088556061,0.7232565169468367,0.288548,0.6157257415351818
0.0105,1.79724375,1.0,1439.7484339985504,0.11143002195589233,1.346082833317288,0.7406669790206571,0.2885372375,0.6180697464383872
0.011,1.796975,1.0,1511.3931536159669,0.11641419656394908,1.3450756870973952,0.7565477662336775,0.28852595000000003,0.6202894457087391
0.0115,1.79669375,1.0,1580.1939728252482,0.12137041446099446,1.3441176114447309,0.7710556296708161,0.2885141375,0.6223949920075678
0.012,1.7964,1.0,1646.1466559042515,0.12629883215193347,1.34320511569123,0.7843310830326645,0.28850180000000003,0.6243949252658466
0.0125,1.79609375,1.0,1709.2578407352232,0.13119960488272078,1.342335071463694,0.7964995563153121,0.2884889375,0.6262968713199859
0.013000000000000001,1.7957750000000001,1.0,1769.5705424050875,0.13607288789931105,1.341504350388924,0.8076726493871516,0.28847555,0.6281083503362217
0.0135,1.79544375,1.0,1827.1454510324133,0.14091883554134632,1.3407099960114,0.8179496134909244,0.2884616375,0.6298364114091577
0.014,1.7951000000000001,1.0,1882.053439665461,0.145737602004258,1.3399492602104355,0.8274186997067333,0.2884472,0.6314875653137042
0.0145,1.79474375,1.0,1934.3494062881052,0.15052933882550326,1.3392198427562667,0.836158471632953,0.2884322375,0.6330672776798907
0.015,1.794375,1.0,1984.1071068250965,0.1552941973821188,1.3385194670508949,0.8442387690872368,0.28841675,0.6345809005981445
0.0155,1.79399375,1.0,2031.4081646216086,0.16003232819026364,1.3378459752991836,0.8517217594700338,0.2884007375,0.6360334724940799
0.016,1.7936,1.0,2076.3490587445654,0.16474388271113707,1.337197231565512,0.8586628132372246,0.2883842,0.6374299331140129
0.0165,1.7931937500000001,1.0,2119.0094752340656,0.1694290099760118,1.3365714316396153,0.8651113988260608,0.2883671375,0.6387744623853946
0.017,1.792775,1.0,2159.4587248684356,0.17408785702845544,1.3359670076316774,0.8711117485205093,0.28834955,0.6400706944611493
0.0175,1.7923437500000001,1.0,2197.7769431213,0.17872057091203586,1.3353823916518834,0.8767034088013151,0.2883314375,0.6413222301334907
0.018000000000000002,1.7919,1.0,2234.054178094,0.18332729867032072,1.3348160158104176,0.8819217914161303,0.2883128,0.6425326388929788
0.0185,1.79144375,1.0,2268.372322111852,0.18790818563289244,1.3342664838230591,0.886798699580102,0.2882936375,0.643705095001813
0.019,1.790975,1.0,2300.8291886582706,0.19246337910647945,1.3337323186177312,0.8913626831579254,0.28827395,0.644842919355973
0.0195,1.79049375,1.0,2331.4938896660756,0.19699302203901015,1.3332123972256058,0.895639513339512,0.2882537375,0.645948655405501
0.02,1.79,1.0,2360.435742448597,0.20149725671803842,1.332705650838401,0.8996524262361779,0.288233,0.6470247126919516
0.0205,1.78949375,1.0,2387.7292017225814,0.20597622543111826,1.3322110106478346,0.9034223951346501,0.2882117375,0.6480734834322204
0.021,1.788975,1.0,2413.4534262891675,0.21043007046580364,1.3317274078456247,0.9069683816640379,0.28818995000000003,0.649097343380174
0.021500000000000002,1.78844375,1.0,2437.67589506907,0.21485893180917476,1.3312539272853172,0.9103075875754891,0.2881676375,0.6500983279912429
0.022,1.7879,1.0,2460.483281099369,0.21926295289740724,1.330789504671969,0.913455585186331,0.2881448,0.6510787742311013
0.0225,1.78734375,1.0,2481.9333728548836,0.22364227175960086,1.3303333851256203,0.9164265789343907,0.28812143749999997,0.6520403529064052
0.023,1.786775,1.0,2502.0820999807406,0.22799702567392724,1.3298848571778614,0.9192334984410699,0.28809755,0.6529846333059375
0.0235,1.78619375,1.0,2520.9878098233694,0.23232735191855805,1.329443209360283,0.9218881232113092,0.28807313749999996,0.6539131754030507
0.024,1.7856,1.0,2538.711064241229,0.23663338777166493,1.3290077302044756,0.9244012008270296,0.2880482,0.6548275301839892
0.0245,1.78499375,1.0,2555.3102876086714,0.24091526969890512,1.3285777473226779,0.926782558091334,0.2880227375,0.6557291580495997
0.025,1.784375,1.0,2570.83974928975,0.2451731331959062,1.3281526440194547,0.929041195692458,0.28799675,0.656619394843881
0.025500000000000002,1.78374375,1.0,2585.368899620471,0.24940711615483394,1.3277316764143323,0.9311853402730762,0.2879702375,0.6574998350594751
0.026000000000000002,1.7831000000000001,1.0,2598.939045569465,0.2536173505116108,1.3273143773754743,0.9332225826564686,0.2879432,0.6583714871278878
0.0265,1.78244375,1.0,2611.592615233704,0.25780396820215906,1.3269002797710447,0.9351598961115494,0.2879156375,0.6592353542270812
0.027,1.781775,1.0,2623.3730637954577,0.2619671011624012,1.326488916469207,0.9370036948759526,0.28788755,0.660092434383811
0.0275,1.7810937500000001,1.0,2634.324784316705,0.26610688132825955,1.3260798203381254,0.9387598864209675,0.2878589375,0.6609437205620403
0.028,1.7804,1.0,2644.493023371893,0.2702234406356565,1.3256725242459637,0.9404339181950379,0.2878298,0.6617902007374432
0.0285,1.77969375,1.0,2653.916212716817,0.27431690731837954,1.3252666310155543,0.9420308280941291,0.2878001375,0.6626327128437222
0.029,1.778975,1.0,2662.644041848032,0.2783874159464226,1.3248616458408948,0.9435552613496365,0.28776995,0.6634722929258452
0.029500000000000002,1.7782437500000001,1.0,2670.7086177473993,0.282435093874407,1.3244572414871318,0.945011536900927,0.2877392375,0.6643096251484726
0.03,1.7775,1.0,2678.1404534729113,0.2864600674997839,1.3240531097718617,0.9464036578190153,0.287708,0.6651453509157708
0.0305,1.77674375,1.0,2684.9704898391833,0.2904624632200043,1.3236489425126814,0.9477353363711079,0.2876762375,0.6659801084516042
0.031,1.775975,1.0,2691.2300560346935,0.29444240743251926,1.3232444315271867,0.9490100188058114,0.28764395,0.6668145328018683
0.0315,1.7751937500000001,1.0,2696.950832344886,0.2984000265347798,1.3228392686329746,0.9502309077347928,0.2876111375,0.6676492558307592
0.032,1.7744,1.0,2702.164462105753,0.3023354465968026,1.3224331488713268,0.9514009826640244,0.2875778,0.6684848995820178
0.0325,1.77359375,1.0,2706.894335288335,0.30624878500919367,1.3220258451865488,0.9525230247579631,0.2875439375,0.6693219229333194
0.033,1.772775,1.0,2711.1823579246384,0.31014018002091176,1.3216169636936375,0.9535996126577889,0.28750955,0.6701611245678747
0.0335,1.7719437500000002,1.0,2715.047998940269,0.31400975147225973,1.3212063173103317,0.9546331706425438,0.2874746375,0.6710028753824443
0.034,1.7711000000000001,1.0,2718.5108891787527,0.31785761920354016,1.3207937189543713,0.9556259623869644,0.2874392,0.6718475442583669
0.0345,1.7702437500000001,1.0,2721.590805695199,0.3216839030550558,1.3203789815434952,0.9565801034960909,0.2874032375,0.6726954980393902
0.035,1.7693750000000001,1.0,2724.307656824616,0.3254887228671094,1.319961917995443,0.9574975729216747,0.28736675,0.6735471015072623
0.035500000000000004,1.76849375,1.0,2726.6814680275347,0.3292721984800036,1.3195423412279539,0.9583802233718195,0.2873297375,0.6744027173550953
0.036000000000000004,1.7676,1.0,2728.732368510746,0.3330344497340412,1.3191200641587673,0.9592297908131108,0.2872922,0.6752627061584957
0.0365,1.76669375,1.0,2730.4805786243646,0.3367755964695248,1.3186948997056227,0.9600479031537283,0.2872541375,0.6761274263444614
0.037,1.765775,1.0,2731.946398034952,0.34049575852675723,1.318266660786259,0.9608360881865484,0.28721555,0.6769972341580497
0.0375,1.76484375,1.0,2733.142901392885,0.34419504699029513,1.3178352265673503,0.9615957854752815,0.2871764375,0.6778723493395444
0.038,1.7639,1.0,2734.088743347542,0.3478735843305338,1.3174004260186092,0.9623283456958689,0.28713679999999997,0.678753091719405
0.0385,1.76294375,1.0,2734.8059846771016,0.35153149732234545,1.3169620576276402,0.9630350372974621,0.28709663750000003,0.6796398406391981
0.039,1.761975,1.0,2735.305399255542,0.35516889801694806,1.3165200227506912,0.963717060904149,0.28705595,0.6805327652994321
0.0395,1.7609937500000001,1.0,2735.5977918527146,0.35878589846555936,1.3160742227440116,0.9643755474956016,0.2870147375,0.6814320335356152
0.04,1.76,1.0,2735.693993914796,0.3623826107193973,1.3156245589638493,0.9650115631880554,0.286973,0.682337811794884
0.0405,1.7589937500000001,1.0,2735.604859560012,0.3659591468296797,1.315170932766453,0.9656261136382346,0.2869307375,0.6832502651120027
0.041,1.757975,1.0,2735.3412617908007,0.36951561884762446,1.3147132455080712,0.9662201481036109,0.28688795,0.6841695570847465
0.0415,1.75694375,1.0,2734.914088921058,0.3730521388244494,1.3142513985449524,0.9667945631891345,0.2868446375,0.6850958498486655
0.042,1.7559,1.0,2734.3342412198454,0.37656881881137233,1.3137852932333454,0.967350206307647,0.28680079999999997,0.6860293040512229
0.0425,1.75484375,1.0,2733.6126277702847,0.38006577085961124,1.3133148309294984,0.9678878788785762,0.2867564375,0.6869700788253184
0.043000000000000003,1.753775,1.0,2732.7601635440606,0.38354310702038386,1.31283991298966,0.9684083392871784,0.28671155,0.6879183317621875
0.043500000000000004,1.75269375,1.0,2731.787766692521,0.38700093934490815,1.3123604407700789,0.9689123056244988,0.28666613750000003,0.6888742188836801
0.044,1.7516,1.0,2730.700939045148,0.3904393693378575,1.3118763648546992,0.9694004605155537,0.2866202,0.6898377966996766
0.0445,1.75049375,1.0,2729.509552946261,0.39385851463498384,1.3113875961295538,0.9698734504035498,0.2865737375,0.6908091995429142
0.045,1.7493750000000001,1.0,2728.223153211598,0.3972584894405794,1.3108940484391072,0.9703318881301851,0.28652675,0.6917885543531317
0.0455,1.74824375,1.0,2726.8470018586613,0.4006393979811568,1.310395674543044,0.9707763568095596,0.2864792375,0.692775909518395
0.046,1.7471,1.0,2725.3863603000286,0.40400134448322866,1.3098924272010493,0.97120741015025,0.2864312,0.6937713123834259
0.0465,1.7459437500000001,1.0,2723.8464885104286,0.40734443317330754,1.3093842591728078,0.9716255742162516,0.28638263750000004,0.6947748092349901
0.047,1.744775,1.0,2722.232644242865,0.4106687682779061,1.3088711232180041,0.9720313490662761,0.28633355,0.6957864452871445
0.0475,1.74359375,1.0,2720.550082295073,0.41397445402353694,1.3083529720963238,0.972425210280879,0.28628393750000003,0.6968062646663384
0.048,1.7424,1.0,2718.804053824309,0.41726159463671275,1.3078297585674512,0.9728076103860772,0.2862338,0.6978343103963798
0.0485,1.74119375,1.0,2716.9998057129606,0.42053029434394607,1.3073014353910715,0.9731789801813675,0.2861831375,0.6988706243832499
0.049,1.739975,1.0,2715.1425799821636,0.42378065737174947,1.3067679553268694,0.9735397299793955,0.28613195,0.6999152473997827
0.0495,1.73874375,1.0,2713.237613256107,0.42701278794663566,1.3062292711345298,0.9738902507639049,0.2860802375,0.7009682190701998
0.05,1.7375,1.0,2711.29013627546,0.4302267902951173,1.3056853355737374,0.9742309152720505,0.286028,0.702029577854501
0.0505,1.73624375,1.0,2709.300220838016,0.4334227485315453,1.3051361484138109,0.974562079829832,0.2859752375,0.7030992695509719
0.051000000000000004,1.734975,1.0,2707.2760612139605,0.4366007853106605,1.3045816353004616,0.9748840839590357,0.28592195,0.7041773834110224
0.051500000000000004,1.73369375,1.0,2705.2223714652273,0.43976100745468394,1.304021753550852,0.9751972520181468,0.2858681375,0.7052639456883449
0.052000000000000005,1.7324,1.0,2703.141333014764,0.442903511076956,1.3034564835551776,0.9755018940878197,0.2858138,0.7063589368250198
0.0525,1.73109375,1.0,2701.035124443054,0.4460283922908172,1.302885805703633,0.9757983064471811,0.28575893750000003,0.7074623364262151
0.053,1.729775,1.0,2698.9059213800565,0.44913574720960797,1.3023097003864132,0.976086772304765,0.28570355000000003,0.7085741232534345
0.0535,1.72844375,1.0,2696.7558964066825,0.45222567194666885,1.3017281479937133,0.9763675624846659,0.2856476375,0.709694275217742
0.054,1.7271,1.0,2694.5872189641527,0.4552982626153402,1.3011411289157284,0.9766409360710088,0.2855912,0.7108227693729612
0.0545,1.7257437500000001,1.0,2692.4020552724583,0.4583536153289625,1.3005486235426535,0.9769071410136034,0.2855342375,0.7119595819088531
0.055,1.724375,1.0,2690.202568256638,0.46139182620087626,1.2999506122646836,0.9771664146974223,0.28547675,0.7131046881442649
0.0555,1.72299375,1.0,2687.9909174822938,0.46441299134442193,1.2993470754720136,0.9774189844783515,0.2854187375,0.714258062520257
0.056,1.7216,1.0,2685.769259099081,0.46741720687293997,1.2987379935548387,0.9776650681874719,0.2853602,0.7154196785932053
0.0565,1.72019375,1.0,2683.5397457931135,0.47040456889977084,1.2981233469033535,0.9779048746059624,0.28530113749999997,0.7165895090278787
0.057,1.718775,1.0,2681.3045267477983,0.473375173538255,1.2975031159077535,0.9781386039125647,0.28524155,0.7177675255904905
0.0575,1.71734375,1.0,2679.065747612643,0.47632911690173285,1.2968772809582334,0.9783664481054016,0.2851814375,0.7189536991417288
0.058,1.7159,1.0,2676.8243463193453,0.47926648343342154,1.2962458334975373,0.9785885910060691,0.2851208,0.7201479787479255
0.0585,1.71444375,1.0,2674.580614786905,0.4821873538963157,1.2956087708861452,0.978805209084532,0.2850596375,0.7213503015790259
0.059000000000000004,1.7129750000000001,1.0,2672.3395317947525,0.4850918587186649,1.2949660474251474,0.979016473612668,0.28499795,0.7225606851606687
0.059500000000000004,1.71149375,1.0,2670.1016029828047,0.4879800852006169,1.2943176584478893,0.97922254767908,0.2849357375,0.7237790686407896
0.06,1.71,1.0,2667.8673331421796,0.49085212064231964,1.2936635992877163,0.9794235879874126,0.284873,0.7250053904763507
0.0605,1.7084937500000001,1.0,2665.637226217803,0.493708052343921,1.2930038652779743,0.9796197451538879,0.2848097375,0.726239588431654
0.061,1.7069750000000001,1.0,2663.4117853111106,0.4965479676055687,1.2923384517520087,0.9798111639887589,0.28474595,0.7274815995766534
0.0615,1.7054437500000001,1.0,2661.1915126832596,0.4993719537274106,1.2916673540431651,0.9799979837626632,0.2846816375,0.7287313602852645
0.062,1.7039,1.0,2658.976909759385,0.5021800980095946,1.290990567484789,0.9801803384587959,0.2846168,0.7299888062336749
0.0625,1.70234375,1.0,2656.768477132224,0.5049724877522686,1.2903080874102262,0.9803583570117578,0.2845514375,0.7312538723986495
0.063,1.7007750000000001,1.0,2654.566714567335,0.5077492102555801,1.289619909152822,0.9805321635338762,0.28448555,0.7325264930558391
0.0635,1.69919375,1.0,2652.3721210083418,0.5105103528196773,1.288926028045922,0.9807018775297464,0.28441913750000003,0.7338066017780838
0.064,1.6976,1.0,2650.185194582174,0.513256002744708,1.288226439422872,0.9808676140996826,0.2843522,0.7350941314337166
0.0645,1.69599375,1.0,2648.0064326059905,0.5159862473308198,1.2875211386170173,0.9810294841327357,0.2842847375,0.7363890141848658
0.065,1.694375,1.0,2645.836331593419,0.5187011738781606,1.2868101209617038,0.9811875944898808,0.28421675,0.7376911814857553
0.0655,1.69274375,1.0,2643.675387261731,0.5214008696868785,1.2860933817902767,0.981342048177942,0.2841482375,0.7390005640810045
0.066,1.6911,1.0,2641.5240945396004,0.5240854220571212,1.2853709164360818,0.9814929445147885,0.2840792,0.7403170920039248
0.0665,1.6894437500000001,1.0,2639.3829475755015,0.5267549182890363,1.2846427202324646,0.9816403792862963,0.2840096375,0.741640694574818
0.067,1.687775,1.0,2637.2524305372694,0.5294094439682907,1.2839087885979226,0.9817844447843048,0.28393955,0.7429713002450897
0.0675,1.68609375,1.0,2635.133709161613,0.5320490311398652,1.283169110638882,0.9819252262040673,0.2838689375,0.744308848150461
0.068,1.6844000000000001,1.0,2633.028157650592,0.5346738360148788,1.2824236735155612,0.9820628138798789,0.2837978,0.7456532800955857
0.0685,1.68269375,1.0,2630.935610974336,0.5372839366480382,1.2816724786190858,0.9821972905600651,0.2837261375,0.747004511443178
0.069,1.680975,1.0,2628.8559044270564,0.5398794110940502,1.2809155273405812,0.9823287361595653,0.28365395,0.7483624569482243
0.0695,1.67924375,1.0,2626.788873623404,0.5424603374076216,1.2801528210711728,0.9824572278749103,0.28358123749999997,0.7497270307584931
0.07,1.6775,1.0,2624.7343544953146,0.5450267936434591,1.2793843612019857,0.9825828402937665,0.283508,0.7510981464150458
0.07050000000000001,1.67574375,1.0,2622.6921832885487,0.5475788578562696,1.2786101491241455,0.9827056454993395,0.2834342375,0.7524757168527468
0.07100000000000001,1.673975,1.0,2620.662196559141,0.5501166081007597,1.2778301862287775,0.9828257131699113,0.28335995,0.7538596544007743
0.07150000000000001,1.67219375,1.0,2618.644231170413,0.5526401224316364,1.2770444739070073,0.9829431106737675,0.2832851375,0.75524987078313
0.07200000000000001,1.6704,1.0,2616.6381242897633,0.5551494789036062,1.27625301354996,0.9830579031597592,0.2832098,0.7566462771191508
0.0725,1.66859375,1.0,2614.643713385156,0.557644755571376,1.2754558065487611,0.9831701536437247,0.2831339375,0.7580487839240162
0.073,1.6667750000000001,1.0,2612.660836222351,0.5601260304896528,1.274652854294536,0.9832799230909876,0.28305755,0.7594573011092616
0.0735,1.66494375,1.0,2610.6893308613808,0.5625933817131431,1.2738441581784101,0.9833872704951341,0.2829806375,0.7608717379832841
0.074,1.6631,1.0,2608.729035653901,0.5650468872965537,1.2730297195915086,0.9834922529532595,0.2829032,0.7622920032518565
0.0745,1.6612437500000001,1.0,2606.7797892397825,0.5674866252945915,1.2722095399249571,0.9835949257378613,0.2828252375,0.7637180050186326
0.075,1.659375,1.0,2604.84143054458,0.5699126737619632,1.271383620569881,0.9836953423655553,0.28274675,0.7651496507856597
0.0755,1.65749375,1.0,2602.9137987761474,0.5723251107533756,1.2705519629174056,0.9837935546627652,0.2826677375,0.7665868474538865
