Time [s],Phi [rad],STIM [ ],Fsee [N],Gamma [ ],Lcerel [ ],q [ ],Lmtc [m],fisomrel [ ]
0.0,1.8,1.0,18.11005134162673,0.000387130933715681,1.3793237691091236,0.005038804059057939,0.288653,0.5411781830001541
0.0005,1.79999375,1.0,18.539815861783712,0.0059941687441734,1.3792732700469914,0.01402060645879289,0.2886527375,0.5413003400123149
0.001,1.799975,1.0,22.161431760440504,0.01156975550568854,1.3788831815365235,0.03760085506570362,0.28865195,0.5422434143774293
0.0015,1.79994375,1.0,32.22442660525173,0.017114067634791594,1.3779486836612025,0.07331112263004928,0.2886506375,0.5444987006338147
0.002,1.7999,1.0,55.95124546029198,0.022627280556148918,1.376216114398143,0.11791525561606907,0.2886488,0.5486652910304954
0.0025,1.79984375,1.0,101.00042084599723,0.028109568711962553,1.373749960228406,0.16804596713980405,0.28864643749999996,0.5545630332565846
0.003,1.7997750000000001,1.0,165.94442864247063,0.03356110556687579,1.3710291267323154,0.22085671621621233,0.28864354999999997,0.5610248313656105
0.0035,1.79969375,1.0,243.2819508878675,0.03898206361004774,1.368413285686469,0.27416661055201696,0.2886401375,0.567192764444197
0.004,1.7996,1.0,327.4026728508524,0.04437261436498426,1.3659995921791825,0.32635445319057793,0.2886362,0.5728453396832656
0.0045000000000000005,1.7994937500000001,1.0,415.40095093591486,0.04973292839510047,1.363779379951918,0.3762970746639101,0.2886317375,0.5780119984751214
0.005,1.799375,1.0,505.66040029568296,0.05506317529474998,1.3617260088589718,0.42329875852634635,0.28862675,0.5827624187339256
0.0055,1.79924375,1.0,597.0856502515885,0.06036352372892648,1.3598161673581428,0.46699800189157226,0.2886212375,0.5871566508536255
0.006,1.7991000000000001,1.0,688.8124923388044,0.06563414139875266,1.3580322621833092,0.5072750468884419,0.2886152,0.5912401123593818
0.006500000000000001,1.79894375,1.0,780.1314823443747,0.07087519505515662,1.356360772749364,0.5441732889829871,0.2886086375,0.5950478305021559
0.007,1.798775,1.0,870.4573520687641,0.0760868505879249,1.3547908821657708,0.5778387423220179,0.28860155,0.5986078760587823
0.0075,1.79859375,1.0,959.3029792501252,0.08126927275018499,1.3533137214185318,0.6084762040524251,0.2885939375,0.6019432852595284
0.008,1.7984,1.0,1046.293751325119,0.0864226257876778,1.3519213853382988,0.6363186083488946,0.2885858,0.6050744213698107
0.0085,1.79819375,1.0,1131.11033502938,0.09154707249813213,1.3506072953101325,0.6616073465046879,0.2885771375,0.6080182540666887
0.009000000000000001,1.797975,1.0,1213.5083608513148,0.09664277495770648,1.3493654946735305,0.6845792807183578,0.28856795,0.6107900227408143
0.0095,1.79774375,1.0,1293.3325092776909,0.10170989488207048,1.348190209903275,0.7054590867840593,0.2885582375,0.6134042657127338
0.01,1.7975,1.0,1370.4441190968007,0.10674859214941912,1.3470766260846854,0.7244557269368869,0.288548,0.6158731365614525
0.0105,1.79724375,1.0,1444.7546066184773,0.11175902608559156,1.3460202335297131,0.7417603877738046,0.2885372375,0.6182079017475854
0.011,1.796975,1.0,1516.230294834638,0.1167413556069026,1.3450166479127528,0.7575461443446438,0.28852595000000003,0.620419364359208
0.0115,1.79669375,1.0,1584.852083965119,0.1216957384624765,1.344062005359279,0.7719687643578464,0.2885141375,0.6225170167989522
0.012,1.7964,1.0,1650.612247446698,0.12662233084990937,1.3431528835441826,0.7851677403221553,0.28850180000000003,0.624509242714645
0.0125,1.79609375,1.0,1713.5368257107339,0.1315212884950108,1.342285952092441,0.797267457068343,0.2884889375,0.6264041039546274
0.013000000000000001,1.7957750000000001,1.0,1773.684033690551,0.13639276738955358,1.341457940358588,0.8083786026115645,0.28847555,0.6282094227234406
0.0135,1.79544375,1.0,1831.1043635981857,0.141236921725538,1.3406660376322956,0.8185997255735923,0.2884616375,0.62993192220635
0.014,1.7951000000000001,1.0,1885.8434261469786,0.1460539037996997,1.339907794358912,0.8280185029194206,0.2884472,0.6315774596111596
0.0145,1.79474375,1.0,1937.970647476158,0.15084386590877427,1.3391807609837845,0.8367128299358397,0.2884322375,0.6331518219976431
0.015,1.794375,1.0,1987.568746720816,0.15560695969692262,1.3384825780063867,0.8447519796823373,0.28841675,0.6346605369456325
0.0155,1.79399375,1.0,2034.7286459827271,0.1603433369961077,1.3378110039437359,0.8521976218260432,0.2884007375,0.6361088189238688
0.016,1.7936,1.0,2079.5284723850914,0.16505314770555354,1.3371641094497768,0.8591047763961802,0.2883842,0.6375011584787593
0.0165,1.7931937500000001,1.0,2122.037423703246,0.16973653974380248,1.3365402057840947,0.8655225738282739,0.2883671375,0.6388414856211708
0.017,1.792775,1.0,2162.3369691036846,0.1743936610293968,1.3359376042062745,0.8714948806162198,0.28834955,0.6401336928576162
0.0175,1.7923437500000001,1.0,2200.5187996993827,0.17902465936791917,1.3353546261890834,0.8770609241377774,0.2883314375,0.6413816157320795
0.018000000000000002,1.7919,1.0,2236.666216300945,0.1836296808901041,1.3347897800796824,0.8822558841298168,0.2883128,0.6425886580172127
0.0185,1.79144375,1.0,2270.8805504267343,0.18820887365206226,1.334241481678025,0.887111292841557,0.2882936375,0.6437583926201482
0.019,1.790975,1.0,2303.2268102869057,0.1927623809093473,1.3337085877980341,0.8916555866884236,0.28827395,0.6448934261155668
0.0195,1.79049375,1.0,2333.7763173594117,0.19729034591751282,1.3331899552536322,0.8959143522449073,0.2882537375,0.645996344764294
0.02,1.79,1.0,2362.6061873491744,0.20179291193211238,1.3326844408587422,0.8999106496382844,0.288233,0.647069715594726
0.0205,1.78949375,1.0,2389.796720270257,0.20627022185295588,1.3321909220199417,0.9036653004626832,0.2882117375,0.6481160437740465
0.021,1.788975,1.0,2415.4211918403794,0.21072241709979742,1.3317083903741427,0.9071971556379113,0.28818995000000003,0.649137575750623
0.021500000000000002,1.78844375,1.0,2439.5646351755727,0.21514964117016516,1.3312357642888106,0.9105232727778971,0.2881676375,0.650136697882677
0.022,1.7879,1.0,2462.2845604531694,0.21955203234900691,1.3307722630238707,0.9136591830603129,0.2881448,0.6511151467285309
0.0225,1.78734375,1.0,2483.641490376375,0.22392972892127047,1.330317105839249,0.9166189949423328,0.28812143749999997,0.65207464792724
0.023,1.786775,1.0,2503.6987112607376,0.22828286917190357,1.3298695119948702,0.9194155441774031,0.28809755,0.6530169166335018
0.0235,1.78619375,1.0,2522.522037634977,0.23261159138585402,1.3294287007506602,0.922060526241803,0.28807313749999996,0.6539436579136861
0.024,1.7856,1.0,2540.169645758917,0.236916031490735,1.3289939850672419,0.9245646292036657,0.2880482,0.6548563705024728
0.0245,1.78499375,1.0,2556.707644309021,0.2411963289655597,1.328564621894575,0.9269376118398561,0.2880227375,0.655756662115035
0.025,1.784375,1.0,2572.1886009803943,0.24545261916358166,1.3281400124556222,0.9291884272345996,0.28799675,0.6566458298010973
0.025500000000000002,1.78374375,1.0,2586.6578794137117,0.24968503501998915,1.3277196394186153,0.9313252917771037,0.2879702375,0.657524993428995
0.026000000000000002,1.7831000000000001,1.0,2600.1621367171538,0.25389370946997053,1.327302985451787,0.9333557442763051,0.2879432,0.6583952669462605
0.0265,1.78244375,1.0,2612.749213091684,0.258078775448714,1.3268895332233699,0.9352867109840605,0.2879156375,0.6592577585108653
0.027,1.781775,1.0,2624.4680273902013,0.26224036589140787,1.3264787654015961,0.93712456358555,0.28788755,0.6601135706053876
0.0275,1.7810937500000001,1.0,2635.3631299136723,0.2663786121547458,1.3260702141330074,0.9388751777987476,0.2878589375,0.6609636972425214
0.028,1.7804,1.0,2645.4756918569587,0.27049364551574173,1.325663450578603,0.9405439779654234,0.2878298,0.6618090464197637
0.0285,1.77969375,1.0,2654.859610431044,0.2745856005291854,1.3252579354065417,0.942135957738833,0.2878001375,0.6626507508133737
0.029,1.778975,1.0,2663.5462697683042,0.27865460428045047,1.3248533433138314,0.9436557605346093,0.28776995,0.6634894940619451
0.029500000000000002,1.7782437500000001,1.0,2671.567581451034,0.2827007838549108,1.3244493489974793,0.9451076833136592,0.2877392375,0.6643259564257393
0.03,1.7775,1.0,2678.9559383113383,0.28672426633794,1.3240456271544925,0.946495706864408,0.287708,0.6651608148024606
0.0305,1.77674375,1.0,2685.744170577484,0.29072517881491194,1.3236418524818783,0.9478235230786599,0.2876762375,0.6659947427362825
0.031,1.775975,1.0,2691.9655043662287,0.2947036483712003,1.3232376996766442,0.9490945595521851,0.28764395,0.6668284104201263
0.0315,1.7751937500000001,1.0,2697.6535225217085,0.29865980209217874,1.3228328434357972,0.950312001801456,0.2876111375,0.6676624846911927
0.032,1.7744,1.0,2702.835461227737,0.30259376260026916,1.3224270193510992,0.9514788194243781,0.2875778,0.6684975038021872
0.0325,1.77359375,1.0,2707.5461065212116,0.3065056600491833,1.3220198965042609,0.9525977720352522,0.2875439375,0.669334139844978
0.033,1.772775,1.0,2711.8087892264934,0.3103956170520882,1.3216112507968287,0.9536714422323928,0.28750955,0.6701728423498066
0.0335,1.7719437500000002,1.0,2715.6450644031806,0.3142637548050104,1.3212008760851661,0.9547022411395054,0.2874746375,0.6710140216904392
0.034,1.7711000000000001,1.0,2719.07665672843,0.31811019450397626,1.320788566225636,0.9556924202917484,0.2874392,0.671858086029658
0.0345,1.7702437500000001,1.0,2722.1254430693557,0.32193505734501215,1.320374115074602,0.956644084080978,0.2874032375,0.6727054412951712
0.035,1.7693750000000001,1.0,2724.813435997316,0.32573846452414446,1.319957316488427,0.9575592010914606,0.28736675,0.6735564911528206
0.035500000000000004,1.76849375,1.0,2727.1627682446115,0.3295205372373996,1.3195379643234746,0.9584396144365731,0.2873297375,0.6744116369770723
0.036000000000000004,1.7676,1.0,2729.189471588629,0.3332813906130617,1.3191159088541569,0.959287055612971,0.2872922,0.6752711629980404
0.0365,1.76669375,1.0,2730.91521164892,0.3370211467050339,1.3186909499222912,0.9601031448857438,0.2872541375,0.6761354542016189
0.037,1.765775,1.0,2732.366843157938,0.34073993382349577,1.318262840957433,0.9608893996939898,0.28721555,0.6770049874544122
0.0375,1.76484375,1.0,2733.5570112239698,0.3444378661884443,1.317831465117293,0.9616472549809035,0.2871764375,0.6778799737927134
0.038,1.7639,1.0,2734.498411042966,0.3481150580198768,1.317396705559583,0.962378059566695,0.28713679999999997,0.6787606227676128
0.0385,1.76294375,1.0,2735.2037818889644,0.35177162353779046,1.3169584454420138,0.9630830822595497,0.28709663750000003,0.6796471424202231
0.039,1.761975,1.0,2735.6859014066144,0.35540767696218245,1.3165165679222965,0.9637635174690147,0.28705595,0.6805397392560275
0.0395,1.7609937500000001,1.0,2735.9575802072736,0.35902333251305,1.3160709561581427,0.9644204903672564,0.2870147375,0.6814386182183592
0.04,1.76,1.0,2736.0316567669706,0.36261870441039024,1.3156214933072634,0.9650550616390612,0.286973,0.6823439826610112
0.0405,1.7589937500000001,1.0,2735.9209926275835,0.36619390687420045,1.3151680625273698,0.9656682318573698,0.2869307375,0.6832560343199742
0.041,1.757975,1.0,2735.6384679003436,0.3697490541244778,1.3147105469761733,0.966260945517506,0.28688795,0.6841749732843043
0.0415,1.75694375,1.0,2735.1969770721266,0.3732842603812194,1.314248829811385,0.9668340947600124,0.2868446375,0.6851009979661198
0.042,1.7559,1.0,2734.6056887980217,0.3767996334743181,1.3137828281206934,0.967388524587852,0.28680079999999997,0.686034237170215
0.0425,1.75484375,1.0,2733.875031741898,0.3802952875166125,1.3133124476286133,0.9679250342789621,0.2867564375,0.6869748410745136
0.043000000000000003,1.753775,1.0,2733.0179886515466,0.3837713411457625,1.3128375709104265,0.9684443790401187,0.28671155,0.6879230045499485
0.043500000000000004,1.75269375,1.0,2732.0412652074288,0.3872279011492317,1.3123581375828448,0.9689472766768848,0.28666613750000003,0.6888788070337264
0.044,1.7516,1.0,2730.9515705190424,0.39066507431448355,1.31187408726258,0.96943440729525,0.2866202,0.6898423268307801
0.0445,1.75049375,1.0,2729.7556157087915,0.3940829674289816,1.3113853595663438,0.969906415650876,0.2865737375,0.6908136410961058
0.045,1.7493750000000001,1.0,2728.4601125754443,0.39748168728018934,1.310891894110848,0.9703639133296522,0.28652675,0.6917928258168662
0.0455,1.74824375,1.0,2727.0717723388284,0.40086134065557033,1.3103936305128046,0.970807480773204,0.2864792375,0.692779955794262
0.046,1.7471,1.0,2725.597304465793,0.40422203434258797,1.309890508388925,0.9712376691617787,0.2864312,0.693775104625171
0.0465,1.7459437500000001,1.0,2724.043415576455,0.4075638751287059,1.309382467355921,0.9716550021658273,0.28638263750000004,0.694778344683554
0.047,1.744775,1.0,2722.4168084312123,0.41088696980138756,1.3088694470305045,0.9720599775766032,0.28633355,0.6957897471016277
0.0475,1.74359375,1.0,2720.7241809995294,0.4141914251480964,1.3083513870293872,0.9724530688252029,0.28628393750000003,0.696809381750807
0.048,1.7424,1.0,2718.9640828523275,0.41747733352388594,1.3078283011270624,0.9728347298071478,0.2862338,0.6978371716365644
0.0485,1.74119375,1.0,2717.14351602929,0.42074480639943385,1.307300126134456,0.9732053896808448,0.2861831375,0.6988731902989398
0.049,1.739975,1.0,2715.2769013010256,0.4239939648384606,1.3067667311881523,0.9735654536907437,0.28613195,0.699917642334617
0.0495,1.73874375,1.0,2713.36700228555,0.4272249074423812,1.3062280915318754,0.9739153124891635,0.2860802375,0.7009705228212544
0.05,1.7375,1.0,2711.4165798907825,0.4304377328126106,1.3056841824093484,0.9742553385278147,0.286028,0.70203182597171
0.0505,1.73624375,1.0,2709.4283921011793,0.43363253955056397,1.3051349790642957,0.9745858870662384,0.2859752375,0.7031015451257394
0.051000000000000004,1.734975,1.0,2707.4051937787713,0.4368094262576562,1.3045804567404407,0.9749072971156783,0.28592195,0.70417967274166
0.051500000000000004,1.73369375,1.0,2705.349736477202,0.4399684915353024,1.304020590681507,0.9752198923230497,0.2858681375,0.7052662003879706
0.052000000000000005,1.7324,1.0,2703.264768269064,0.44310983398491743,1.303455356131219,0.9755239817993085,0.2858138,0.7063611187349332
0.0525,1.73109375,1.0,2701.1530335879916,0.44623355220791644,1.3028847283333,0.9758198608961647,0.28575893750000003,0.7074644175461193
0.053,1.729775,1.0,2699.0172730829468,0.4493397448057145,1.3023086825314738,0.976107811934788,0.28570355000000003,0.7085760856699126
0.0535,1.72844375,1.0,2696.8602234871637,0.4524285103797265,1.3017271939694643,0.9763881048898542,0.2856476375,0.7096961110309734
0.054,1.7271,1.0,2694.6846175000314,0.4554999475313675,1.3011402378909953,0.9766609980320315,0.2855912,0.710824480621667
0.0545,1.7257437500000001,1.0,2692.493183682925,0.45855415486205253,1.3005477895397906,0.9769267385317609,0.2855342375,0.7119611804934496
0.055,1.724375,1.0,2690.2886463682316,0.46159123097319665,1.2999498241595737,0.9771855630269672,0.28547675,0.7131061957482169
0.0555,1.72299375,1.0,2688.0737255826834,0.46461127446621475,1.2993463169940687,0.9774376981571407,0.2854187375,0.7142595105296128
0.056,1.7216,1.0,2685.851294495234,0.4676143637865723,1.2987372418436887,0.9776833591082349,0.2853602,0.7154211107641119
0.0565,1.72019375,1.0,2683.6222752777107,0.4706006150121498,1.298122590350705,0.9779227566460312,0.28530113749999997,0.716590947457225
0.057,1.718775,1.0,2681.387746796668,0.47357012601766124,1.2975023527068001,0.9781560910916863,0.28524155,0.7177689736413224
0.0575,1.71734375,1.0,2679.148946062335,0.47652298721889924,1.2968765176366297,0.9783835538392532,0.2851814375,0.7189551443748339
0.058,1.7159,1.0,2676.9071080494437,0.4794592890316566,1.2962450738648486,0.9786053285424579,0.2851208,0.7201494139375333
0.0585,1.71444375,1.0,2674.6634656865704,0.48237912187172594,1.2956080101161123,0.9788215914872661,0.2850596375,0.7213517358265067
0.059000000000000004,1.7129750000000001,1.0,2672.419249848305,0.4852825761549001,1.2949653151150757,0.9790325119436554,0.28499795,0.7225620627521177
0.059500000000000004,1.71149375,1.0,2670.1756893504253,0.48816974229697174,1.2943169775863945,0.9792382524979071,0.2849357375,0.7237803466339596
0.06,1.71,1.0,2667.9340109477675,0.49104071071373356,1.2936629862547238,0.9794389693666444,0.284873,0.7250065385968046
0.0605,1.7084937500000001,1.0,2665.695439335171,0.49389557182097843,1.2930033298447188,0.9796348126937504,0.2848097375,0.72624058896654
0.061,1.7069750000000001,1.0,2663.46119715095,0.4967344160344989,1.2923379970810345,0.9798259268312193,0.28474595,0.7274824472661003
0.0615,1.7054437500000001,1.0,2661.23250498286,0.4995573337700878,1.2916669766883264,0.9800124506049356,0.2846816375,0.728732062211388
0.062,1.7039,1.0,2659.0105813783443,0.5023644154435378,1.2909902573912495,0.9801945175662895,0.2846168,0.7299893817071887
0.0625,1.70234375,1.0,2656.796642855328,0.5051557514706417,1.2903078279144593,0.980372256230487,0.2845514375,0.7312543528430762
0.063,1.7007750000000001,1.0,2654.5919039179025,0.5079314322671922,1.289619676982611,0.9805457903023537,0.28448555,0.7325269218893116
0.0635,1.69919375,1.0,2652.3927487766623,0.510691508896825,1.2889258378410873,0.9807152382616905,0.28441913750000003,0.7338069522570974
0.064,1.6976,1.0,2650.200652807745,0.5134360941511418,1.2882262968265665,0.9808807163956843,0.2843522,0.7350943935511607
0.0645,1.69599375,1.0,2648.019735577212,0.5161653084153527,1.2875210158516224,0.9810423360195718,0.2842847375,0.7363892392973569
0.065,1.694375,1.0,2645.8500339822194,0.51887923287062,1.2868099944584739,0.981200203458232,0.28421675,0.7376914128786038
0.0655,1.69274375,1.0,2643.6915848987787,0.5215779486981061,1.2860932321893404,0.9813544212129791,0.2841482375,0.7390008370390823
0.066,1.6911,1.0,2641.544425182594,0.5242615370789737,1.2853707285864413,0.9815050881249032,0.2840792,0.7403174338840678
0.0665,1.6894437500000001,1.0,2639.4085916705553,0.526930079194385,1.2846424831919954,0.9816522995301014,0.2840096375,0.7416411248797661
0.067,1.687775,1.0,2637.284121180812,0.5295836562255025,1.2839084955482225,0.9817961474072525,0.28393955,0.7429718308531408
0.0675,1.68609375,1.0,2635.171050514692,0.5322223493534888,1.2831687651973414,0.981936720517965,0.2838689375,0.7443094719917505
0.068,1.6844000000000001,1.0,2633.0694164570436,0.5348462397595061,1.2824232916815717,0.9820741045403013,0.2837978,0.7456539678435775
0.0685,1.68269375,1.0,2630.979255777519,0.5374554086247169,1.2816720745431323,0.9822083821958528,0.2837261375,0.7470052373168627
0.069,1.680975,1.0,2628.9006052315394,0.5400499371302837,1.2809151133242427,0.9823396333707198,0.28365395,0.748363198679936
0.0695,1.67924375,1.0,2626.8335015611333,0.5426299064573691,1.2801524075671222,0.9824679352307296,0.28358123749999997,0.7497277695610491
0.07,1.6775,1.0,2624.777981496268,0.5451953977871352,1.27938395681399,0.9825933623312019,0.283508,0.7510988669482098
0.07050000000000001,1.67574375,1.0,2622.7340817556324,0.5477464923007448,1.278609760607065,0.9827159867215567,0.2834342375,0.7524764071890113
0.07100000000000001,1.673975,1.0,2620.7018390474304,0.55028327117936,1.277829818488567,0.9828358780450385,0.28335995,0.7538603059904653
0.07150000000000001,1.67219375,1.0,2618.681290070913,0.5528058156041435,1.277044130000715,0.9829531036338157,0.2832851375,0.755250478418836
0.07200000000000001,1.6704,1.0,2616.6724715171463,0.5553142067562576,1.276252694685728,0.9830677285997006,0.2832098,0.7566468388994705
0.0725,1.66859375,1.0,2614.6754200699465,0.5578085258168648,1.2754555120858255,0.9831798159207159,0.2831339375,0.7580493012166315
0.073,1.6667750000000001,1.0,2612.69017240701,0.5602888539671277,1.274652581743227,0.9832894265237264,0.28305755,0.7594577785133291
0.0735,1.66494375,1.0,2610.716765201046,0.5627552723882084,1.2738439032001514,0.9833966193633377,0.2829806375,0.7608721832911547
0.074,1.6631,1.0,2608.755235120568,0.5652078622612696,1.2730294759988179,0.9835014514972542,0.2829032,0.7622924274101114
0.0745,1.6612437500000001,1.0,2606.806411115377,0.5676466647096123,1.2722092923123536,0.9836039755668355,0.2828252375,0.7637184348814019
0.075,1.659375,1.0,2604.8693803866877,0.5700717911269797,1.2713833605090616,0.9837042472025659,0.28274675,0.7651501008890583
0.0755,1.65749375,1.0,2602.9435356619897,0.57248333315019,1.2705516861265551,0.9838023190456163,0.2826677375,0.7665873250448916
