Time [s],Phi [rad],STIM [ ],Fsee [N],Gamma [ ],Lcerel [ ],q [ ],Lmtc [m],fisomrel [ ]
0.0,1.8,1.0,17.978461645404646,0.00011403937727446458,1.3793384800512947,0.005003400098195759,0.288653,0.541142594235885
0.0005,1.79999375,1.0,18.322284930956716,0.005722609015375263,1.3792973322420747,0.01323187360692554,0.2886527375,0.5412421356952971
0.001,1.799975,1.0,21.741299426449846,0.011299719012227288,1.3789257656573104,0.03615278400814484,0.28865195,0.5421405105899908
0.0015,1.79994375,1.0,31.357774672314623,0.016845545832481268,1.378021678035918,0.07134532050507039,0.2886506375,0.5443227389506019
0.002,1.7999,1.0,54.201014140495715,0.022360264949002475,1.3763281135744565,0.1155976722329898,0.2886488,0.5483965272113871
0.0025,1.79984375,1.0,98.15570003325462,0.027844050851105872,1.373885340778277,0.16553134155295524,0.28864643749999996,0.5542402804563511
0.003,1.7997750000000001,1.0,162.30515171875328,0.03329707705133267,1.3711640298737375,0.21826685355193784,0.28864354999999997,0.560705557805763
0.0035,1.79969375,1.0,239.2041429921523,0.03871951608581262,1.3685379639129254,0.2715937559628096,0.2886401375,0.566899774090929
0.004,1.7996,1.0,323.0841145106547,0.044111539524817965,1.366113308897929,0.3238653980100975,0.2886362,0.5725798630351074
0.0045000000000000005,1.7994937500000001,1.0,410.9421138830009,0.049473317978016865,1.3638835505996627,0.3739358191875786,0.2886317375,0.577770285723797
0.005,1.799375,1.0,501.121658381089,0.05480502108613173,1.3618220751964687,0.42109063408449443,0.28862675,0.5825407713664572
0.0055,1.79924375,1.0,592.5132471732406,0.060106817562636194,1.3599051996206464,0.46495430233792784,0.2886212375,0.5869523191518581
0.006,1.7991000000000001,1.0,684.2422791513832,0.06537887515065222,1.3581150936794066,0.5053973076895295,0.2886152,0.5910509556090237
0.006500000000000001,1.79894375,1.0,775.5948931589284,0.07062136065331613,1.356438016914443,0.542456639408975,0.2886086375,0.5948722579658778
0.007,1.798775,1.0,865.9825066385513,0.0758344399897177,1.3548630013659875,0.5762744438606732,0.28860155,0.5984446755788366
0.0075,1.79859375,1.0,954.9128743837276,0.08101827804743475,1.3533811093462578,0.6070534728481833,0.2885939375,0.601791427159465
0.008,1.7984,1.0,1041.9888707901866,0.08617303875676496,1.3519846511483629,0.6350259809536475,0.2885858,0.6049324150381548
0.0085,1.79819375,1.0,1126.9193788652085,0.0912988856419283,1.350666526554259,0.6604330137752723,0.2885771375,0.6078858008749082
0.009000000000000001,1.797975,1.0,1209.4418985088898,0.09639598037470307,1.3494209760253646,0.6835119954250587,0.28856795,0.6106663951322755
0.0095,1.79774375,1.0,1289.378584695122,0.10146448419848031,1.3482424607064252,0.7044884353448684,0.2885582375,0.6132882288301464
0.01,1.7975,1.0,1366.6193118515962,0.10650455812963015,1.3471257247406863,0.7235718960724609,0.288548,0.6157644490537415
0.0105,1.79724375,1.0,1441.0690098764758,0.11151636128823135,1.3460663095953405,0.7409544816884468,0.2885372375,0.6181062160811925
0.011,1.796975,1.0,1512.670455438512,0.11650005187475276,1.345060087964557,0.7568102648972062,0.28852595000000003,0.6203237745340953
0.0115,1.79669375,1.0,1581.4081321363792,0.12145578759142818,1.3441031095598732,0.771295791924361,0.2885141375,0.6224268175740622
0.012,1.7964,1.0,1647.3073862761983,0.1263837262182333,1.3431915323088248,0.7845511379674311,0.28850180000000003,0.6244246560954109
0.0125,1.79609375,1.0,1710.3800604708356,0.13128402311989704,1.342322183324353,0.7967014705992714,0.2884889375,0.6263250089414797
0.013000000000000001,1.7957750000000001,1.0,1770.6525083548497,0.1361568327970987,1.3414921379990166,0.807858252999871,0.28847555,0.6281349479746832
0.0135,1.79544375,1.0,1828.1807692718332,0.14100230962553437,1.3406984956053483,0.8181205541184904,0.2884616375,0.6298614001666215
0.014,1.7951000000000001,1.0,1883.0374478282185,0.14582060719461098,1.3399384902688305,0.8275764331093313,0.2884472,0.6315109146484319
0.0145,1.79474375,1.0,1935.3035890102651,0.1506118786957868,1.3392095413167626,0.83630419409078,0.2884322375,0.6330895633918097
0.015,1.794375,1.0,1985.0298720369183,0.15537627468709841,1.338509630438728,0.8443736320247017,0.28841675,0.6346021367992212
0.0155,1.7939950664711721,1.0,2032.3412838589206,0.16011394572658255,1.3378367393243102,0.8518468338289112,0.2884007927917892,0.6360533723300958
0.016,1.7936133033500536,1.0,2077.722096119539,0.1648250417261344,1.3371889325564656,0.8587791143282882,0.28838475874070224,0.6374477798515028
0.0165,1.793231540228935,1.0,2121.3129798121413,0.16950971290829997,1.3365647411709827,0.8652199358117297,0.2883687246896153,0.6387888233434613
0.017,1.7928497771078165,1.0,2163.1633664446817,0.17416810747257144,1.3359629358603207,0.8712135224309592,0.2883526906385283,0.640079418775874
0.0175,1.792468013986698,1.0,2203.322381178332,0.17880037175672298,1.3353823727683343,0.876799432047021,0.28833665658744134,0.6413222705238587
0.018000000000000002,1.7920862508655795,1.0,2241.846401646929,0.18340665209852877,1.3348219080388777,0.8820130829367104,0.2883206225363543,0.6425200570701701
0.0185,1.791704487744461,1.0,2278.796252832932,0.18798709444291997,1.3342804205061778,0.8868862430203045,0.28830458848526735,0.6436753841397097
0.019,1.7913227246233425,1.0,2314.228658889029,0.19254184325601661,1.333756890317669,0.891447471408472,0.2882885544341804,0.6447906191501257
0.0195,1.790940961502224,1.0,2348.220193170084,0.19707104602798187,1.3332501560617704,0.8957224302400526,0.2882725203830934,0.6458684103469567
0.02,1.7905591983811053,1.0,2380.8159855373706,0.20157484408089443,1.332759414997014,0.8997343253859083,0.2882564863320064,0.6469106241417255
0.0205,1.7901774352599868,1.0,2412.0651918006793,0.206053378736833,1.3322838643819315,0.9035041018022237,0.28824045228091943,0.647919111834854
0.021,1.7897956721388684,1.0,2442.020716214618,0.21050679131787625,1.3318227014750557,0.9070506945743757,0.28822441822983247,0.6488957104138906
0.021500000000000002,1.7894139090177499,1.0,2470.7389482632634,0.21493522314610297,1.3313751235349183,0.9103912493810051,0.2882083841787455,0.649842243310643
0.022,1.7890321458966314,1.0,2498.273992723231,0.21933881425249427,1.3309403802748814,0.9135413262752184,0.28819235012765854,0.6507604104066228
0.0225,1.788650382775513,1.0,2524.680553024602,0.22371770499410507,1.3305177430188284,0.9165150637482655,0.28817631607657157,0.6516518544315679
0.023,1.7882686196543944,1.0,2550.0154843091764,0.2280720361363762,1.3301064876088002,0.9193253252460767,0.28816028202548455,0.6525181978271078
0.0235,1.7878868565332757,1.0,2574.3172391788894,0.23240194345261203,1.3297060849013196,0.9219838645785204,0.2881442479743976,0.6533606427903185
0.024,1.7875050934121572,1.0,2597.626149656374,0.23670756271611704,1.3293160057529096,0.9245014058732871,0.2881282139233106,0.6541803837849158
0.0245,1.7871233302910388,1.0,2619.9843029664416,0.24098902970019556,1.3289357210200932,0.9268877479859096,0.2881121798722236,0.6549786078985697
0.025,1.7867415671699203,1.0,2641.4354235247692,0.24524648017815207,1.3285647015593938,0.9291518570576889,0.28809614582113663,0.6557564951823549
0.025500000000000002,1.7863598040488018,1.0,2662.0247611346986,0.24948004992329093,1.3282024182273338,0.9313019486879706,0.28808011177004966,0.6565152189723543
0.026000000000000002,1.7859780409276833,1.0,2681.7840270682395,0.2536898699777629,1.327848479050012,0.933345581145079,0.2880640777189627,0.6572556593896488
0.0265,1.7855962778065646,1.0,2700.767855048104,0.2578760802113936,1.3275022927251783,0.9352896706135859,0.28804804366787573,0.6579791079711468
0.027,1.7852145146854461,1.0,2719.0051924060626,0.2620388108371108,1.327163514012186,0.9371406135571284,0.28803200961678876,0.6586863364132595
0.0275,1.7848327515643276,1.0,2736.52509405734,0.2661781917933624,1.3268318047366179,0.9389043022989442,0.28801597556570174,0.659378097616726
0.028,1.7844509884432092,1.0,2753.3574359539507,0.27029435301859644,1.3265068267240563,0.9405861705636865,0.2879999415146148,0.6600551406332497
0.0285,1.7840692253220907,1.0,2769.53286334627,0.274387424451261,1.3261882418000843,0.9421912352077809,0.2879839074635278,0.6607182108143168
0.029,1.7836874622009722,1.0,2785.0827415815684,0.27845753602980416,1.3258757117902846,0.943724133648923,0.28796787341244084,0.6613680499527275
0.029500000000000002,1.7833056990798537,1.0,2800.039109437168,0.2825048176926738,1.3255688985202396,0.94518915748493,0.2879518393613538,0.6620053964168301
0.03,1.782923935958735,1.0,2814.42327734164,0.28652939358432017,1.3252675654826793,0.946590294248838,0.28793580531026686,0.6626307743780961
0.0305,1.7825421728376165,1.0,2828.2745591749394,0.2905313990387935,1.3249713196593618,0.9479312255646981,0.2879197712591799,0.663245029970832
0.031,1.782160409716498,1.0,2841.615066571823,0.2945109593988727,1.3246799267388083,0.9492153866385546,0.2879037372080929,0.6638486772094454
0.0315,1.7817786465953795,1.0,2854.464360194375,0.2984681983610526,1.3243931787195784,0.950445972862351,0.28788770315700596,0.66444217347005
0.032,1.781396883474261,1.0,2866.842359509651,0.3024032396218284,1.3241108676002307,0.9516259569816082,0.287871669105919,0.6650259741818423
0.0325,1.7810151203531426,1.0,2878.769321848115,0.306316206877695,1.3238327853793241,0.952758107347847,0.28785563505483197,0.665600532887336
0.033,1.780633357232024,1.0,2890.2658224218176,0.31020722382514754,1.3235587240554172,0.9538450044646007,0.287839601003745,0.6661663012998418
0.0335,1.7802515941109054,1.0,2901.352735301347,0.3140764141606809,1.323288475627069,0.9548890560048312,0.28782356695265804,0.6667237293581822
0.034,1.779869830989787,1.0,2912.051215352217,0.3179239015807901,1.3230218320928386,0.9558925104572547,0.287807532901571,0.6672732652786543
0.0345,1.7794880678686684,1.0,2922.3747137354917,0.32174980291316785,1.3227586554412063,0.9568574754177597,0.28779149885048405,0.6678152115363032
0.035,1.77910630474755,1.0,2932.3484134381292,0.3255542474312514,1.3224987064715168,0.9577859148927292,0.2877754647993971,0.6683500775644085
0.035500000000000004,1.7787245416264315,1.0,2941.9896192585347,0.3293373569411584,1.3222418172219568,0.9586796735164609,0.2877594307483101,0.6688782245965912
0.036000000000000004,1.778342778505313,1.0,2951.3105627075574,0.33309924840813243,1.3219878657430324,0.9595404835206899,0.28774339669722315,0.6693999180938996
0.0365,1.7779610153841943,1.0,2960.323622512717,0.33684003879741703,1.3217367300852494,0.9603699695291991,0.2877273626461362,0.6699154225575619
0.037,1.7775792522630758,1.0,2969.0413168401847,0.34055984507425563,1.3214882882991132,0.9611696564615814,0.28771132859504917,0.6704250015513592
0.0375,1.7771974891419573,1.0,2977.476295845807,0.3442587842038919,1.3212424184351301,0.9619409767716068,0.2876952945439622,0.670928917723051
0.038,1.7768157260208388,1.0,2985.64133455661,0.34793697315156913,1.320998998543806,0.9626852770829682,0.28767926049287523,0.6714274328248522
0.0385,1.7764339628997203,1.0,2993.549326081416,0.351594528882531,1.3207579066756463,0.9634038242786573,0.28766322644178827,0.6719208077329636
0.039,1.7760521997786018,1.0,3001.213275151699,0.35523156836202097,1.320519020881157,0.9640978110944306,0.28764719239070125,0.6724093024661494
0.0395,1.7756704366574834,1.0,3008.6442514018854,0.35884820535394785,1.3202822368776332,0.9647683622465562,0.2876311583396143,0.6728931401168994
0.04,1.7752886735363647,1.0,3015.8497911832583,0.36244454983232893,1.3200474817133905,0.9654165402074484,0.2876151242885273,0.673372479110067
0.0405,1.7749069104152462,1.0,3022.848561322949,0.36602073038729166,1.319814586889786,0.966043342405793,0.28759909023744035,0.6738476722337869
0.041,1.7745251472941277,1.0,3029.647621291715,0.36957685668796636,1.3195834850429742,0.9666497157831548,0.2875830561863534,0.6743188650758518
0.0415,1.7741433841730092,1.0,3036.254087553267,0.37311303840348303,1.3193541088091087,0.9672365549256895,0.2875670221352664,0.6747862027638392
0.042,1.7737616210518907,1.0,3042.6751309365254,0.37662938520297196,1.3191263908243442,0.9678047055004475,0.2875509880841794,0.6752498299726655
0.0425,1.7733798579307722,1.0,3048.9179741089697,0.38012600675556313,1.3189002637248342,0.9683549674321649,0.2875349540330924,0.6757098909318597
0.043000000000000003,1.7729980948096538,1.0,3054.989889149626,0.3836030127303868,1.3186756601467329,0.9688880978425886,0.28751891998200546,0.6761665294325383
0.043500000000000004,1.772616331688535,1.0,3060.898195223676,0.3870605127965731,1.3184525127261943,0.9694048137723145,0.28750288593091844,0.6766198888340977
0.044,1.7722345685674166,1.0,3066.650256357574,0.3904986166232521,1.3182307540993725,0.9699057947032615,0.2874868518798315,0.6770701120706145
0.0445,1.771852805446298,1.0,3072.2534793138716,0.393917433879554,1.3180103169024218,0.9703916848982217,0.2874708178287445,0.6775173416569557
0.045,1.7714710423251796,1.0,3077.7153115676606,0.39731707423460905,1.3177911337714958,0.9708630955724373,0.28745478377765754,0.6779617196946022
0.0455,1.7710892792040611,1.0,3083.042591455341,0.40069764544336584,1.3175731428842097,0.9713206070549103,0.2874387497265706,0.6784033766538435
0.046,1.7707075160829426,1.0,3088.2360700286476,0.4040592394227669,1.3173563347336246,0.971764772182937,0.2874227156754836,0.678842336748851
0.0465,1.770325752961824,1.0,3093.3100184058885,0.40740198995893767,1.317140584484997,0.9721961136231647,0.2874066816243966,0.6792788573740896
0.047,1.7699439898407054,1.0,3098.2681888813595,0.41072599878103616,1.3169258575235419,0.972615130435902,0.2873906475733096,0.6797130128602284
0.0475,1.769562226719587,1.0,3103.1143538643964,0.4140313676182205,1.3167121192344742,0.9730222973707587,0.28737461352222265,0.6801448773278324
0.048,1.7691804635984685,1.0,3107.8523051079883,0.4173181981996487,1.316499335003009,0.9734180662777389,0.2873585794711357,0.6805745246895826
0.0485,1.76879870047735,1.0,3112.485852962941,0.42058659225447886,1.316287470214361,0.9738028674237709,0.28734254542004867,0.6810020286524225
0.049,1.7684169373562315,1.0,3117.0188256594497,0.423836651511869,1.316076490253745,0.9741771107218362,0.2873265113689617,0.6814274627196246
0.0495,1.768035174235113,1.0,3121.455068613972,0.4270684777009772,1.3158663605063763,0.9745411868792433,0.28731047731787474,0.6818509001927804
0.05,1.7676534111139943,1.0,3125.7984437641026,0.4302821725509615,1.3156570463574695,0.9748954684710591,0.28729444326678777,0.6822724141737193
0.0505,1.7672716479928758,1.0,3130.052828928967,0.43347783779098,1.31544851319224,0.9752403109442029,0.2872784092157008,0.6826920775663432
0.051000000000000004,1.7668898848717574,1.0,3134.2221171968795,0.4366555751501907,1.315240726395902,0.9755760535572718,0.28726237516461384,0.683109963078393
0.051500000000000004,1.7665081217506389,1.0,3138.3102163387907,0.4398154863577517,1.3150336513536711,0.9759030202607396,0.2872463411135268,0.6835261432231301
0.052000000000000005,1.7661263586295204,1.0,3142.3210482494324,0.442957673142821,1.314827253450762,0.9762215205218109,0.28723030706243985,0.6839406903209494
0.0525,1.765744595508402,1.0,3146.258548413685,0.4460822372345567,1.3146214980723894,0.9765318500978636,0.2872142730113529,0.6843536765009104
0.053,1.7653628323872834,1.0,3150.1202966604037,0.4491892427458364,1.3144164044899136,0.9768342912265126,0.2871982389602659,0.6847650656493465
0.0535,1.7649810692661647,1.0,3153.916069153962,0.45227883404703695,1.3142118888199399,0.9771291157474011,0.2871822049091789,0.6851750284572887
0.054,1.7645993061450462,1.0,3157.6487718509584,0.4553511110442546,1.3140079254613903,0.9774165827783368,0.28716617085809193,0.6855836184548276
0.0545,1.7642175430239277,1.0,3161.320172173288,0.458406166454728,1.3138044985074815,0.9776969402461676,0.28715013680700496,0.6859908696315946
0.055,1.7638357799028093,1.0,3164.932043871058,0.461444092995696,1.3136015920514297,0.9779704255957101,0.287134102755918,0.6863968158890583
0.0555,1.7634540167816908,1.0,3168.4861668357903,0.46446498338439735,1.313399190186451,0.9782372663198244,0.28711806870483103,0.6868014910410609
0.056,1.7630722536605723,1.0,3171.9843269198027,0.46746893033807085,1.313197277005762,0.9784976804584516,0.28710203465374406,0.6872049288143366
0.0565,1.7626904905394536,1.0,3175.4283157610525,0.47045602657395524,1.3129958366025791,0.9787518770686694,0.28708600060265704,0.6876071628490166
0.057,1.762308727418335,1.0,3178.8199306137735,0.47342636480928935,1.3127948530701183,0.9790000566676749,0.2870699665515701,0.688008226699117
0.0575,1.7619269642972166,1.0,3182.160974184151,0.4763800377613118,1.3125943105015963,0.9792424116504577,0.2870539325004831,0.688408153833009
0.058,1.7615452011760981,1.0,3185.4532544721787,0.47931713814726157,1.3123941929902292,0.9794791266838035,0.2870378984493961,0.6888069776338758
0.0585,1.7611634380549797,1.0,3188.6985846192615,0.4822377586843773,1.3121944846292335,0.9797103790781485,0.2870218643983091,0.6892047314001508
0.059000000000000004,1.7607816749338612,1.0,3191.898782760619,0.4851419920898977,1.3119951695118253,0.9799363391386932,0.28700583034722216,0.6896014483459421
0.059500000000000004,1.7603999118127427,1.0,3195.055671883967,0.48802993108106174,1.3117962317312213,0.9801571704970884,0.2869897962961352,0.6899971616014368
0.06,1.760018148691624,1.0,3198.1710796937796,0.490901668375108,1.3115976553806374,0.980373030424913,0.2869737622450482,0.6903919042132957
0.0605,1.7596363855705055,1.0,3201.2468384809063,0.49375729668927537,1.3113994245532903,0.9805840701300749,0.28695772819396126,0.6907857091450245
0.061,1.759254622449387,1.0,3204.2847849977684,0.4965969087408026,1.311201523342396,0.9807904350371908,0.28694169414287424,0.6911786092773349
0.0615,1.7588728593282685,1.0,3207.286760339697,0.4994205972469284,1.3110039358411711,0.980992265052927,0.28692566009178727,0.6915706374084845
0.062,1.75849109620715,1.0,3210.2512456918903,0.5022284106320652,1.3108066743391042,0.9811896929605798,0.2869096260407003,0.6919617703643686
0.0625,1.7581093330860316,1.0,3213.1824913404157,0.5050204861542318,1.3106097027775214,0.9813828507104445,0.28689359198961334,0.6923520808050376
0.063,1.757727569964913,1.0,3216.0820732612033,0.5077969186953316,1.310413007562814,0.9815718633598901,0.2868775579385263,0.6927415967340829
0.0635,1.7573458068437944,1.0,3218.9507639527988,0.510557791514045,1.3102165818554545,0.9817568508737369,0.28686152388743935,0.6931303327229531
0.064,1.756964043722676,1.0,3221.7893378616704,0.5133031878690524,1.3100204188159161,0.9819379288541861,0.2868454898363524,0.6935183033074106
0.0645,1.7565822806015574,1.0,3224.5985713421833,0.5160331910190338,1.309824511604672,0.9821152087313605,0.2868294557852654,0.6939055229876481
0.065,1.756200517480439,1.0,3227.379242617283,0.5187478842226696,1.309628853382195,0.9822887979441848,0.28681342173417845,0.6942920062284033
0.0655,1.7558187543593204,1.0,3230.1321317400443,0.52144735073864,1.309433437308958,0.9824588001121644,0.2867973876830915,0.6946777674590663
0.066,1.755436991238202,1.0,3232.858020556608,0.5241316738256255,1.309238256545434,0.982625315198578,0.28678135363200447,0.6950628210737896
0.0665,1.7550552281170833,1.0,3235.5576926699464,0.5268009367423063,1.309043304252096,0.9827884396655758,0.2867653195809175,0.6954471814315895
0.067,1.7546734649959648,1.0,3238.2319334045537,0.5294552227473627,1.308848573589417,0.9829482666216374,0.28674928552983053,0.6958308628564491
0.0675,1.7542917018748463,1.0,3240.8815297725,0.5320946150994748,1.30865405771787,0.9831048859618156,0.2867332514787435,0.6962138796374164
0.068,1.7539099387537278,1.0,3243.507270440303,0.5347191970573231,1.3084597497979278,0.9832583845011684,0.28671721742765655,0.6965962460286983
0.0685,1.7535281756326093,1.0,3246.1099456967313,0.5373290518795877,1.3082656429900634,0.9834088461017566,0.2867011833765696,0.6969779762497538
0.069,1.7531464125114908,1.0,3248.6903474219725,0.5399242628249491,1.30807173045475,0.9835563517935552,0.2866851493254826,0.6973590844853823
0.0695,1.7527646493903724,1.0,3251.2492690575777,0.5425049131520874,1.3078780053524603,0.983700979889614,0.28666911527439565,0.6977395848858112
