Time [s],Phi [rad],STIM [ ],Fsee [N],Gamma [ ],Lcerel [ ],q [ ],Lmtc [m],fisomrel [ ]
0.0,1.8,1.0,17.975708557978074,0.00010521250630929242,1.3793387884039867,0.005002895964088502,0.288653,0.5411418482531741
0.0005,1.79999375,1.0,18.316731473629137,0.005713831656174311,1.379297948402659,0.013206960280121686,0.2886527375,0.5412406452089725
0.001,1.799975,1.0,21.729238244793414,0.011290990887070525,1.378926994212675,0.03610645842205947,0.28865195,0.5421375416356742
0.0015,1.79994375,1.0,31.331568086437183,0.016836866665202798,1.3780239009156856,0.07128212774736548,0.2886506375,0.544317379899515
0.002,1.7999,1.0,54.14662861211569,0.022351634464996443,1.3763316225149904,0.1155229722304486,0.2886488,0.5483881055332741
0.0025,1.79984375,1.0,98.06585141699703,0.027835468777285866,1.3738896484284595,0.16545016104972646,0.28864643749999996,0.5542300089223309
0.003,1.7997750000000001,1.0,162.1891964744594,0.03328854311616258,1.3711683529132952,0.21818315781013853,0.28864354999999997,0.560695324603417
0.0035,1.79969375,1.0,239.07366065940568,0.03871103001927577,1.3685419708634419,0.27151054831038784,0.2886401375,0.5668903562247767
0.004,1.7996,1.0,322.94562195554323,0.04410310105840706,1.3661169682361498,0.3237848563956626,0.2886362,0.5725713187805168
0.0045000000000000005,1.7994937500000001,1.0,410.7989298035196,0.04946492684471703,1.3638869051137474,0.37385938215841585,0.2886317375,0.577762500914345
0.005,1.799375,1.0,500.97573483889033,0.054796677020371824,1.361825170995601,0.4210191336826439,0.28862675,0.5825336276594517
0.0055,1.79924375,1.0,592.3661587257885,0.06009852030067822,1.3599080693693282,0.46488811207179537,0.2886212375,0.5869457321519225
0.006,1.7991000000000001,1.0,684.0951981491443,0.06537062442982408,1.3581177639934892,0.5053364834700516,0.2886152,0.591044856863213
0.006500000000000001,1.79894375,1.0,775.4488403727083,0.07061315621312257,1.3564405074927497,0.5424010278106514,0.2886086375,0.5948665963594102
0.007,1.798775,1.0,865.8380166968801,0.07582628156292597,1.3548653331512386,0.5762237685100017,0.28860155,0.5984393983656264
0.0075,1.79859375,1.0,954.7724923322556,0.08101016540341421,1.3533832667580625,0.6070073688994101,0.2885939375,0.6017865649725767
0.008,1.7984,1.0,1041.846832386802,0.08616497156595934,1.351986740812169,0.6349841306527669,0.2885858,0.6049277241467695
0.0085,1.79819375,1.0,1126.7775029364577,0.09129086369341548,1.3506685336280588,0.6603950228156757,0.2885771375,0.6078813122549329
0.009000000000000001,1.797975,1.0,1209.3066292380681,0.09638800351675209,1.349422823192385,0.6834774498855563,0.28856795,0.6106622788018597
0.0095,1.79774375,1.0,1289.247856180014,0.10145655222687795,1.348244189640718,0.7044570132104399,0.2885582375,0.6132843889715549
0.01,1.7975,1.0,1366.4889243264258,0.10649667039366119,1.3471273997221407,0.723543310426783,0.288548,0.615760740950718
0.0105,1.79724375,1.0,1440.947563216037,0.11150851781216403,1.3460678288819707,0.7409283906344573,0.2885372375,0.618102862923849
0.011,1.796975,1.0,1512.5582166549448,0.11649225246361385,1.345061458424112,0.7567864123828271,0.28852595000000003,0.6203207586422985
0.0115,1.79669375,1.0,1581.300819321533,0.12144803182663855,1.3441043910768056,0.7712739722538722,0.2885141375,0.622424005234888
0.012,1.7964,1.0,1647.2020121266085,0.12637601377094426,1.3431927652463853,0.7845311589457455,0.28850180000000003,0.6244219575336081
0.0125,1.79609375,1.0,1710.2823156300356,0.13127635417323813,1.3423233057074409,0.7966831189882353,0.2884889375,0.6263225585763075
0.013000000000000001,1.7957750000000001,1.0,1770.5625194828442,0.13614920713208797,1.3414931535811097,0.8078413650538524,0.28847555,0.6281327361518771
0.0135,1.79544375,1.0,1828.094840250741,0.1409947267460615,1.3406994499885299,0.8181050000653847,0.2884616375,0.6298593264589071
0.014,1.7951000000000001,1.0,1882.9501404886225,0.14581306648792766,1.3399394457314227,0.8275621035940844,0.2884472,0.6315088432264451
0.0145,1.79474375,1.0,1935.2111239886574,0.15060437990225436,1.339210539466025,0.8362909850570768,0.2884322375,0.6330874040662255
0.015,1.794375,1.0,1984.9464312448483,0.15536881834992264,1.3385105198176586,0.844361385853935,0.28841675,0.6346002167499317
0.0155,1.79399375,1.0,2032.2215978564159,0.16010653164690977,1.337837405567501,0.8518354214781237,0.2884007375,0.6360519368603947
0.016,1.7936,1.0,2077.11830334824,0.1648176696091931,1.3371892154967302,0.8587684064556041,0.2883842,0.6374471714052923
0.0165,1.7931937500000001,1.0,2119.7249661935234,0.16950238131830359,1.3365640510947645,0.8652096848846058,0.2883671375,0.6387903045621197
0.017,1.792775,1.0,2160.1369390966734,0.17416081621014617,1.3359600774004428,0.8712033324295084,0.28834955,0.6400855433453079
0.0175,1.7923437500000001,1.0,2198.437445152325,0.1787931218831141,1.3353757014826635,0.8767888255130413,0.2883314375,0.6413365397162354
0.018000000000000002,1.7919,1.0,2234.696731149189,0.18339944368493483,1.3348095604826828,0.8820015744107529,0.2883128,0.642546422861584
0.0185,1.79144375,1.0,2268.993405900337,0.1879799269633358,1.3342602915417574,0.8868733365800074,0.2882936375,0.6437182955944495
0.019,1.790975,1.0,2301.4137392579837,0.19253471706604441,1.3337265318011438,0.8914326396926174,0.28827395,0.6448552358800388
0.0195,1.79049375,1.0,2332.035458726458,0.19706395751405703,1.3332070712537782,0.8957051878473592,0.2882537375,0.6459599734262742
0.02,1.79,1.0,2360.954298804693,0.20156779429492824,1.332700582525737,0.8997141201779355,0.288233,0.6470354667953931
0.0205,1.78949375,1.0,2388.2368805519127,0.20604636879799662,1.3322060770833066,0.9034803983983365,0.2882117375,0.6480839360616075
0.021,1.788975,1.0,2413.947875887042,0.2104998215606964,1.3317226285080925,0.9070229866825986,0.28818995000000003,0.6491074545142923
0.021500000000000002,1.78844375,1.0,2438.1559299443807,0.21492829312046194,1.3312493103817,0.9103590574119352,0.2881676375,0.6501080815422455
0.022,1.7879,1.0,2460.9333275268273,0.21933192401472737,1.3307851962857347,0.9135041851791603,0.2881448,0.6510878632595918
0.0225,1.78734375,1.0,2482.3473778663474,0.22371085301895072,1.3303294389191245,0.9164725322848302,0.28812143749999997,0.6520486664010727
0.023,1.786775,1.0,2502.4704952184647,0.22806522113597455,1.3298811700037696,0.9192769802198626,0.28809755,0.6529923905514798
0.0235,1.78619375,1.0,2521.3626856725873,0.2323951662373747,1.329439663894294,0.9219292906468605,0.28807313749999996,0.6539206245319343
0.024,1.7856,1.0,2539.07587256815,0.23670082372469886,1.3290042920144036,0.9244402115360443,0.2880482,0.6548347443753222
0.0245,1.78499375,1.0,2555.663868090238,0.24098232899949473,1.3285744257878036,0.9268195634172538,0.2880227375,0.6557361183616555
0.025,1.784375,1.0,2571.182213486291,0.24523981746331008,1.3281494366381998,0.9290763321334303,0.28799675,0.6566261072513778
0.025500000000000002,1.78374375,1.0,2585.688028043402,0.24947342451769253,1.3277286959892978,0.9312187511894343,0.2879702375,0.6575060644934771
0.026000000000000002,1.7831000000000001,1.0,2599.227927323192,0.2536832822572862,1.3273116864766112,0.9332543915947287,0.2879432,0.6583771042596829
0.0265,1.78244375,1.0,2611.862381611454,0.25786952848697836,1.3268977730196345,0.9351901926472511,0.2879156375,0.6592405803405724
0.027,1.781775,1.0,2623.6360096587473,0.26203229553476104,1.326486478586475,0.9370325600009433,0.28788755,0.6600975105236073
0.0275,1.7810937500000001,1.0,2634.5861765289005,0.26617171313899785,1.3260774019021724,0.9387874037165194,0.2878589375,0.6609487499002843
0.028,1.7804,1.0,2644.751033774088,0.27028791103805266,1.3256701416917673,0.9404601735772575,0.2878298,0.6617951492680618
0.0285,1.77969375,1.0,2654.169451264739,0.2743810189702891,1.3252642966802994,0.9420559009746827,0.2878001375,0.6626375551819839
0.029,1.778975,1.0,2662.880952589216,0.27845116667407094,1.3248594655928094,0.9435792364775217,0.28776995,0.6634768099960276
0.029500000000000002,1.7782437500000001,1.0,2670.9256540237716,0.28249848388776194,1.324455247154337,0.9450344835757938,0.2877392375,0.6643137518941905
0.03,1.7775,1.0,2678.335094657256,0.28652309653663544,1.324051323705665,0.9464256388756139,0.287708,0.6651490421065253
0.0305,1.77674375,1.0,2685.150844595916,0.29052513646828426,1.3236472896456095,0.9477563992657314,0.2876762375,0.6659835201053921
0.031,1.775975,1.0,2691.4068449789743,0.2945047313754506,1.3232428132238259,0.9490302049604279,0.28764395,0.666817868938606
0.0315,1.7751937500000001,1.0,2697.1287280387874,0.2984620049174844,1.3228376419267152,0.9502502616619999,0.2876111375,0.6676526050867284
0.032,1.7744,1.0,2702.342411920074,0.3023970807537357,1.322431523240679,0.9514195514359275,0.2875778,0.6684882424129321
0.0325,1.77359375,1.0,2707.0740736721336,0.3063100825435544,1.3220242046521182,0.95254085105077,0.2875439375,0.669325292149779
0.033,1.772775,1.0,2711.350123654467,0.3102011339462904,1.3216154336474348,0.9536167486030418,0.28750955,0.6701642628819274
0.0335,1.7719437500000002,1.0,2715.1971813567343,0.3140703586212937,1.3212049577130296,0.954649658605762,0.2874746375,0.6710056605247796
0.034,1.7711000000000001,1.0,2718.6420526316942,0.3179178802279142,1.3207925243353038,0.955641835699001,0.2874392,0.6718499882990546
0.0345,1.7702437500000001,1.0,2721.706584474496,0.3217438177985752,1.3203779276412952,0.9565953910568648,0.2874032375,0.672697651403919
0.035,1.7693750000000001,1.0,2724.4152132195545,0.32554829808336955,1.3199609394268943,0.9575122990728099,0.28736675,0.6735490983452146
0.035500000000000004,1.76849375,1.0,2726.7866571115983,0.32933144094264655,1.3195413846141137,0.9583944121153629,0.2873297375,0.6744046668332112
0.036000000000000004,1.7676,1.0,2728.8378973334306,0.3330933640403557,1.31911910481601,0.9592434670519604,0.2872922,0.6752646586142488
0.0365,1.76669375,1.0,2730.5860000924536,0.3368341850404465,1.3186939416456407,0.9600610926462372,0.2872541375,0.6761293735917251
0.037,1.765775,1.0,2732.0481066438933,0.34055402160686843,1.3182657367160624,0.9608488175034336,0.28721555,0.6769991097977744
0.0375,1.76484375,1.0,2733.241423870516,0.34425299140357096,1.3178343316403325,0.961608077346478,0.2871764375,0.6778741633633392
0.038,1.7639,1.0,2734.183215418525,0.3479312120945036,1.3173995680315076,0.9623402216859002,0.28713679999999997,0.6787548284866467
0.0385,1.76294375,1.0,2734.890793389326,0.3515888013436158,1.316961287502645,0.9630465199401912,0.28709663750000003,0.6796413974000816
0.039,1.761975,1.0,2735.368456144548,0.35522585872004503,1.3165194501992603,0.9637281745009206,0.28705595,0.6805339210636415
0.0395,1.7609937500000001,1.0,2735.6465646186675,0.35884252527137733,1.3160737799143478,0.9643863044601584,0.2870147375,0.6814329261819401
0.04,1.76,1.0,2735.735994139441,0.36243891379904786,1.315624177631573,0.965021975256208,0.286973,0.6823385793826318
0.0405,1.7589937500000001,1.0,2735.6458745612113,0.36601513450980694,1.3151705603732071,0.9656361928555474,0.2869307375,0.6832510136289497
0.041,1.757975,1.0,2735.385353427391,0.36957129761040486,1.3147128451615226,0.9662299068218839,0.28688795,0.6841703606197049
0.0415,1.75694375,1.0,2734.963593047666,0.373107513307592,1.3142509490187917,0.966804014062277,0.2868446375,0.6850967507678214
0.042,1.7559,1.0,2734.3897677282293,0.3766238918081188,1.3137847889672862,0.9673593622871065,0.28680079999999997,0.68603031317843
0.0425,1.75484375,1.0,2733.6730611542666,0.38012054331873546,1.313314282029278,0.9678967532084684,0.2867564375,0.6869711756265244
0.043000000000000003,1.753775,1.0,2732.8226639245154,0.3835975780461924,1.3128393452270393,0.9684169454992346,0.28671155,0.6879194645341753
0.043500000000000004,1.75269375,1.0,2731.847771240024,0.38705510619723993,1.312359895582842,0.9689206575329301,0.28666613750000003,0.6888753049473089
0.044,1.7516,1.0,2730.7575807437606,0.3904932379786284,1.3118758501189582,0.9694085699226974,0.2866202,0.6898388205120443
0.0445,1.75049375,1.0,2729.561290514589,0.3939120835971082,1.31138712585766,0.9698813278759368,0.2865737375,0.6908101334505927
0.045,1.7493750000000001,1.0,2728.2680972125213,0.39731175325942963,1.310893639821219,0.9703395433796917,0.28652675,0.6917893645367161
0.0455,1.74824375,1.0,2726.8826180397705,0.40069234852561736,1.3103953506490271,0.9707837991549969,0.2864792375,0.6927765506870776
0.046,1.7471,1.0,2725.4103065924623,0.40405397736897347,1.3098922093745726,0.9712146488704416,0.2864312,0.6937717428856698
0.0465,1.7459437500000001,1.0,2723.864310246911,0.4073967607995169,1.309384097012197,0.9716326151490119,0.28638263750000004,0.694775129196261
0.047,1.744775,1.0,2722.2487580382767,0.4107208008175962,1.308870976554532,0.9720381981554541,0.28633355,0.6957867341908472
0.0475,1.74359375,1.0,2720.5677769839167,0.41402619942356006,1.30835281099421,0.9724318735835304,0.28628393750000003,0.696806581479493
0.048,1.7424,1.0,2718.825491574929,0.417313058617757,1.3078295633238626,0.9728140940786493,0.2862338,0.6978346936984696
0.0485,1.74119375,1.0,2717.0260232999985,0.4205814804005358,1.3073011965361219,0.973185290565026,0.2861831375,0.698871092498303
0.049,1.739975,1.0,2715.1734901978357,0.4238315667722449,1.3067676736236196,0.9735458734846028,0.28613195,0.6999157985317361
0.0495,1.73874375,1.0,2713.2720064409655,0.42706341973323314,1.3062289575789878,0.97389623395435,0.2860802375,0.7009688314416023
0.05,1.7375,1.0,2711.3256819498806,0.430277141283849,1.3056850113948586,0.9742367448480189,0.286028,0.7020302098486135
0.0505,1.73624375,1.0,2709.338622036903,0.4334728334244411,1.3051357980638638,0.9745677618079138,0.2859752375,0.703099951339059
0.051000000000000004,1.734975,1.0,2707.314927081262,0.43665059815535806,1.3045812805786354,0.9748896241917987,0.28592195,0.7041780724524189
0.051500000000000004,1.73369375,1.0,2705.2586922338864,0.4398105374769486,1.3040214219318054,0.9752026559596344,0.2858681375,0.7052645886688877
0.052000000000000005,1.7324,1.0,2703.174007152622,0.44295275338956125,1.3034561851160058,0.9755071665044678,0.2858138,0.7063595143968127
0.0525,1.73109375,1.0,2701.0595208681566,0.4460773348566957,1.3028855827844343,0.9758034531952126,0.28575893750000003,0.7074627670323137
0.053,1.729775,1.0,2698.9194416041087,0.4491843872046522,1.3023095767982582,0.9760917988236032,0.28570355000000003,0.7085743615307973
0.0535,1.72844375,1.0,2696.7626073704673,0.4522740233855237,1.3017280866244108,0.9763724719442625,0.2856476375,0.7096943933098601
0.054,1.7271,1.0,2694.5905275700393,0.45534633730385465,1.301141098647559,0.9766457316134858,0.2855912,0.7108228275042768
0.0545,1.7257437500000001,1.0,2692.4047093602067,0.4584014228641897,1.3005485992523695,0.9769118257628097,0.2855342375,0.7119596284675975
0.055,1.724375,1.0,2690.2066576108587,0.4614393739710734,1.29995057482351,0.9771709917676681,0.28547675,0.7131047597673658
0.0555,1.72299375,1.0,2687.997874866039,0.46446028452905014,1.2993470117456472,0.9774234569823964,0.2854187375,0.7142581841803297
0.056,1.7216,1.0,2685.7798613095447,0.4674642484426646,1.298737896403448,0.9776694392438348,0.2853602,0.7154198636876365
0.0565,1.72019375,1.0,2683.5541147350523,0.4704513596164613,1.2981232151815796,0.9779091473456194,0.28530113749999997,0.7165897594700179
0.057,1.718775,1.0,2681.3221305201346,0.4734217119549847,1.2975029544647092,0.9781427814850903,0.28524155,0.717767831902963
0.0575,1.71734375,1.0,2679.085401603988,0.4763753993627795,1.2968771006375037,0.9783705336846046,0.2851814375,0.7189540405518797
0.058,1.7159,1.0,2676.845418470155,0.47931251574439016,1.2962456400846303,0.9785925881889196,0.2851208,0.7201483441672439
0.0585,1.71444375,1.0,2674.603669132735,0.48223315500436115,1.295608559190756,0.9788091218401779,0.2850596375,0.7213507006797364
0.059000000000000004,1.7129750000000001,1.0,2672.361639126578,0.48513741104723707,1.2949658443405476,0.9790203044319307,0.28499795,0.7225610671953694
0.059500000000000004,1.71149375,1.0,2670.1208115022705,0.4880253777775625,1.2943174819186725,0.9792262990435219,0.2849357375,0.7237793999905993
0.06,1.71,1.0,2667.882212570541,0.49089714171600585,1.293663462486202,0.979427261978958,0.284873,0.7250056466856347
0.0605,1.7084937500000001,1.0,2665.6467679068114,0.4937527829264203,1.293003777514921,0.9796233430000567,0.2848097375,0.7262397524298044
0.061,1.7069750000000001,1.0,2663.4172691683343,0.49659242047731844,1.2923384012912082,0.9798146882854136,0.28474595,0.7274816936559327
0.0615,1.7054437500000001,1.0,2661.194117121178,0.4994161402011316,1.2916673300679111,0.9800014369282968,0.2846816375,0.7287314048821945
0.062,1.7039,1.0,2658.9777118673665,0.502224027930291,1.2909905600978777,0.98018372274493,0.2846168,0.7299888199423579
0.0625,1.70234375,1.0,2656.7684528486607,0.5050161694972277,1.2903080876339554,0.9803616745126833,0.2845514375,0.7312538719844249
0.063,1.7007750000000001,1.0,2654.5667388517786,0.5077926507343731,1.289619908928992,0.9805354161957796,0.28448555,0.7325264934692679
0.0635,1.69919375,1.0,2652.3729680129272,0.5105535574741581,1.2889260202358348,0.9807050671592616,0.28441913750000003,0.7338066161692665
0.064,1.6976,1.0,2650.1875378229993,0.5132989755490143,1.2882264178073317,0.9808707423719132,0.2843522,0.7350941711669434
0.0645,1.69599375,1.0,2648.010845133408,0.5160289907913724,1.2875210978963305,0.9810325525987744,0.2842847375,0.7363890888535993
0.065,1.694375,1.0,2645.8432861617744,0.5187436890336641,1.2868100567556786,0.981190604583868,0.28421675,0.7376912989279478
0.0655,1.69274375,1.0,2643.685256497998,0.5214431561083203,1.2860932906382236,0.9813450012236874,0.2841482375,0.7390007303947478
0.066,1.6911,1.0,2641.5371511108283,0.5241274778477722,1.2853707957968135,0.9814958417319894,0.2840792,0.7403173115634356
0.0665,1.6894437500000001,1.0,2639.3993643548115,0.5267967400844512,1.2846425684842955,0.9816432217963755,0.2840096375,0.7416409700467576
0.067,1.687775,1.0,2637.2722899770024,0.5294510286507884,1.2839086049535173,0.9817872337271341,0.28393955,0.7429716327593994
0.0675,1.68609375,1.0,2635.1563211247612,0.5320904293792149,1.2831689014573269,0.981927966598771,0.2838689375,0.7443092259166157
0.068,1.6844000000000001,1.0,2633.0518503533126,0.534715028102162,1.2824234542485717,0.9820655063846424,0.2837978,0.7456536750328601
0.0685,1.68269375,1.0,2630.9580305328645,0.5373248625525419,1.2816722710520425,0.9821999335118948,0.2837261375,0.7470048843124513
0.069,1.680975,1.0,2628.8765741346797,0.5399200639750679,1.2809153358984733,0.9823313305630874,0.28365395,0.748362799926811
0.0695,1.67924375,1.0,2626.807903499363,0.5425007297977575,1.2801526447477671,0.9824597756767474,0.28358123749999997,0.7497273457934674
0.07,1.6775,1.0,2624.7518603009426,0.5450669369003356,1.2793841989365287,0.982585343297921,0.283508,0.751098435537609
0.07050000000000001,1.67574375,1.0,2622.7082865197153,0.5476187621625267,1.2786099998013618,0.9827081053735498,0.2834342375,0.7524759821769298
0.07100000000000001,1.673975,1.0,2620.6770244390214,0.5501562824640555,1.2778300486788705,0.9828281314516553,0.28335995,0.7538598981221187
0.07150000000000001,1.67219375,1.0,2618.657916642093,0.5526795746846466,1.2770443469056592,0.9829454887759353,0.2832851375,0.7552500951773495
0.07200000000000001,1.6704,1.0,2616.6508060089386,0.5551887157040244,1.2762528958183315,0.9830602423760118,0.2832098,0.7566464845407721
0.0725,1.66859375,1.0,2614.655535713044,0.5576837824019136,1.2754556967534918,0.9831724551535584,0.2831339375,0.7580489768050012
0.073,1.6667750000000001,1.0,2612.671949218532,0.5601648516580391,1.2746527510477443,0.9832821879645206,0.28305755,0.7594574819576076
0.0735,1.66494375,1.0,2610.6998902770365,0.5626320003521252,1.2738440600376928,0.98338949969763,0.2829806375,0.7608719093816088
0.074,1.6631,1.0,2608.7392029246203,0.5650853053638967,1.2730296250599415,0.983494447349403,0.2829032,0.7622921678559558
0.0745,1.6612437500000001,1.0,2606.7897314789243,0.567524843573078,1.2722094474510948,0.9835970860958018,0.2828252375,0.7637181655560258
0.075,1.659375,1.0,2604.8513205364816,0.569950691859394,1.2713835285477562,0.9836974693607258,0.28274675,0.7651498100541111
0.0755,1.65749375,1.0,2602.923814969369,0.572362927102569,1.2705518696865303,0.983795648881497,0.2826677375,0.7665870083199067
