Time [s],Phi [rad],STIM [ ],Fsee [N],Gamma [ ],Lcerel [ ],q [ ],Lmtc [m],fisomrel [ ]
0.0,1.8,1.0,17.966135436376653,1.6400380426010096e-05,1.3793398608014495,0.00500007140663918,0.288653,0.5411392538492885
0.0005,1.79999375,1.0,18.277719287666965,0.005625517696058905,1.3793022794716985,0.012958294980600596,0.2886527375,0.5412301683277219
0.001,1.799975,1.0,21.624165393977417,0.011203172298440662,1.37893771141947,0.035641944753202384,0.28865195,0.5421116417862706
0.0015,1.79994375,1.0,31.08506217255677,0.016749540669385152,1.378044855565443,0.07064738134498207,0.2886506375,0.5442668596317072
0.002,1.7999,1.0,53.61814973650673,0.022264798299040663,1.3763658120263464,0.11477193172774595,0.2886488,0.5483060444443523
0.0025,1.79984375,1.0,97.18011028916347,0.027749119693505814,1.3739322199599449,0.16463352412443946,0.28864643749999996,0.5541284913132253
0.003,1.7997750000000001,1.0,161.0384936715236,0.03320267838248138,1.3712113374208383,0.21734093956250006,0.28864354999999997,0.5605935681448742
0.0035,1.79969375,1.0,237.7745012859327,0.03862564691891168,1.368581926233144,0.2706730471412438,0.2886401375,0.56679644022406
0.004,1.7996,1.0,321.5640473838575,0.044018196889754294,1.3661535161201648,0.3229740511456681,0.2886362,0.5724859777832916
0.0045000000000000005,1.7994937500000001,1.0,409.36870230626533,0.049380498921167804,1.3639204445957949,0.37308980149392695,0.2886317375,0.5776846620063745
0.005,1.799375,1.0,499.5166716301211,0.054712722669620316,1.3618561501600133,0.4202991925303734,0.28862675,0.5824621383653505
0.0055,1.79924375,1.0,590.8946446048163,0.06001503686906267,1.3599367987758562,0.4642215940140878,0.2886212375,0.5868797859916737
0.006,1.7991000000000001,1.0,682.6225889064666,0.06528760927482138,1.35814451564126,0.5047239781271706,0.2886152,0.5909837561099723
0.006500000000000001,1.79894375,1.0,773.9873646083014,0.07053060671685359,1.356465442367565,0.5418409828904814,0.2886086375,0.5948099119824495
0.007,1.798775,1.0,864.393269298928,0.07574419509455439,1.3548886592577507,0.5757134109807122,0.28860155,0.5983866056448857
0.0075,1.79859375,1.0,953.3504546553849,0.08092853935692973,1.3534051297871224,0.6065432171361907,0.2885939375,0.6017372903065918
0.008,1.7984,1.0,1040.463629545097,0.08608380354785844,1.35200709789444,0.6345623166409904,0.2885858,0.6048820249742797
0.0085,1.79819375,1.0,1125.4222196281416,0.09121015079109876,1.3506877127638848,0.6600118816849928,0.2885771375,0.6078384187386322
0.009000000000000001,1.797975,1.0,1207.978758816332,0.09630774308221975,1.3494409613898648,0.6831293376504826,0.28856795,0.6106218574710683
0.0095,1.79774375,1.0,1287.969264648246,0.10137674214077445,1.3482611041229864,0.7041403408356715,0.2885582375,0.6132468219229542
0.01,1.7975,1.0,1365.2635152805888,0.10641730840135523,1.3471431454520986,0.7232549000322884,0.288548,0.6157258819056861
0.0105,1.79724375,1.0,1439.7557691967936,0.11142960071862751,1.3460827415146053,0.7406654892742104,0.2885372375,0.6180699490616548
0.011,1.796975,1.0,1511.4014598378835,0.11641377780131017,1.3450755856358234,0.7565463999482641,0.28852595000000003,0.6202896689990227
0.0115,1.79669375,1.0,1580.1972686543445,0.12136999781676873,1.3441175720719007,0.7710544061861249,0.2885141375,0.6223950784162634
0.012,1.7964,1.0,1646.147875466865,0.1262984177412783,1.3432051014168538,0.7843299725869415,0.28850180000000003,0.6243949565097165
0.0125,1.79609375,1.0,1709.2587564554174,0.13119919279826217,1.3423350609453752,0.7964985389876905,0.2884889375,0.6262968942842035
0.013000000000000001,1.7957750000000001,1.0,1769.5710196002628,0.1360724781642786,1.341504345001893,0.8076717165220024,0.28847555,0.6281083620689668
0.0135,1.79544375,1.0,1827.1446947384038,0.140918428000984,1.340710004413571,0.817948759817818,0.2884616375,0.6298363931521189
0.014,1.7951000000000001,1.0,1882.0574234611215,0.14573719690047673,1.3399492166022289,0.8274178935581222,0.2884472,0.631487659858198
0.0145,1.79474375,1.0,1934.3580532817073,0.15052893612846635,1.3392197493911666,0.8361577088571779,0.2884322375,0.6330674796651599
0.015,1.794375,1.0,1984.1161534242383,0.15529379695066245,1.3385193706036838,0.8442380611073462,0.28841675,0.6345811088204267
0.0155,1.79399375,1.0,2031.4169058452599,0.16003193034229835,1.3378458831989897,0.8517211041617643,0.2884007375,0.6360336709358885
0.016,1.7936,1.0,2076.3481459407203,0.1647434864570971,1.337197241078451,0.8586622352258481,0.2883842,0.6374299126565084
0.0165,1.7931937500000001,1.0,2119.007282791844,0.16942861583894003,1.3365714542573548,0.8651108653730506,0.2883671375,0.6387744138363818
0.017,1.792775,1.0,2159.4600692897,0.17408746527911692,1.3359669938928322,0.8711112415414334,0.28834955,0.6400707238986404
0.0175,1.7923437500000001,1.0,2197.7829166497972,0.17872018156891745,1.3353823311420139,0.8767029228975199,0.2883314375,0.6413223595591472
0.018000000000000002,1.7919,1.0,2234.0620060733877,0.18332691149963137,1.334815937162031,0.8819213321438689,0.2883128,0.6425328068313487
0.0185,1.79144375,1.0,2268.3821930995678,0.18790780069902094,1.3342663854014756,0.8867982642881256,0.2882936375,0.6437053048170669
0.019,1.790975,1.0,2300.837967222818,0.19246299585713286,1.333732231708025,0.8913622772012818,0.28827395,0.6448431043341236
0.0195,1.79049375,1.0,2331.506188508946,0.196992640956442,1.3332122762677951,0.8956391236982351,0.2882537375,0.6459489124503653
0.02,1.79,1.0,2360.4535268914815,0.2014968780246729,1.3327054770059978,0.8996520472626628,0.288233,0.6470250815376641
0.0205,1.78949375,1.0,2387.7517157649204,0.20597584908955002,1.3322107918478447,0.9034220276365603,0.2882117375,0.6480739470020025
0.021,1.788975,1.0,2413.477129630216,0.21042969617879792,1.3317271787185472,0.9069680320962584,0.28818995000000003,0.6490978281231922
0.021500000000000002,1.78844375,1.0,2437.7020652841866,0.21485855983753202,1.331253675572388,0.9103072521617772,0.2881676375,0.6500988597569615
0.022,1.7879,1.0,2460.5050382650015,0.21926258226844972,1.330789296377122,0.9134552758566269,0.2881448,0.6510792136553845
0.0225,1.78734375,1.0,2481.952261110407,0.2236419031133819,1.3303332050796766,0.9164262913187635,0.28812143749999997,0.6520407322123354
0.023,1.786775,1.0,2502.099019584544,0.22799665936811409,1.329884696548085,0.9192332295796954,0.28809755,0.6529849712480161
0.0235,1.78619375,1.0,2521.0030042858434,0.23232698802843188,1.3294430656503815,0.9218878714112014,0.28807313749999996,0.6539134773433624
0.024,1.7856,1.0,2538.724109356262,0.23663302609012085,1.3290076072545993,0.9244009655330392,0.2880482,0.6548277881651892
0.0245,1.78499375,1.0,2555.324242213431,0.24091491054896655,1.328577616228772,0.9267823332494286,0.2880227375,0.6557294327596235
0.025,1.784375,1.0,2570.855797660344,0.24517277509573776,1.3281524937121312,0.9290409778738961,0.28799675,0.6566197094085131
0.025500000000000002,1.78374375,1.0,2585.383885507811,0.2494067592208969,1.3277315364530375,0.9311851340448843,0.2879702375,0.6575001275960821
0.026000000000000002,1.7831000000000001,1.0,2598.953113504245,0.25361699565748513,1.3273142463308865,0.9332223875162241,0.2879432,0.6583717606787111
0.0265,1.78244375,1.0,2611.605596307971,0.2578036159335087,1.3269001591439809,0.9351597118498113,0.2879156375,0.6592356057131378
0.027,1.781775,1.0,2623.3844726192233,0.261966751576974,1.326488810690623,0.9370035215596445,0.28788755,0.6600926546359138
0.0275,1.7810937500000001,1.0,2634.333816503542,0.26610653411588736,1.326079736769115,0.9387597243770621,0.2878589375,0.6609438943513541
0.028,1.7804,1.0,2644.498553493055,0.270223095078255,1.3256724731777596,0.9404337679947258,0.2878298,0.6617903068057445
0.0285,1.77969375,1.0,2653.920882353275,0.27431656460817505,1.3252665879701635,0.9420306860283001,0.2878001375,0.66263280213727
0.029,1.778975,1.0,2662.6370821330856,0.278387071285774,1.3248617098914,0.9435551390312874,0.28776995,0.6634721602246043
0.029500000000000002,1.7782437500000001,1.0,2670.6983035079115,0.2824347501534256,1.3244573362660517,0.9450114239491105,0.2877392375,0.6643094290278644
0.03,1.7775,1.0,2678.132708893897,0.2864597266702467,1.324053180839001,0.9464035471401339,0.287708,0.6651452040437682
0.0305,1.77674375,1.0,2684.968870313354,0.2904621262953544,1.3236489573551302,0.9477352238840309,0.2876762375,0.6659800778154883
0.031,1.775975,1.0,2691.235733090224,0.2944420744878655,1.3232443795593214,0.949009903191655,0.28764395,0.6668146399340222
0.0315,1.7751937500000001,1.0,2696.9625813619173,0.2983996967068971,1.3228391611964567,0.9502307902091389,0.2876111375,0.6676494770343375
0.032,1.7744,1.0,2702.1790054084536,0.302335118411566,1.3224330160114184,0.9514008664755006,0.2875778,0.6684851727862896
0.0325,1.77359375,1.0,2706.9148707980926,0.30624846506098924,1.3220256577490888,0.9525229082625364,0.2875439375,0.669322307880315
0.033,1.772775,1.0,2711.196448823856,0.3101398602436059,1.321616835180905,0.9535995067643308,0.28750955,0.6701613881639623
0.0335,1.7719437500000002,1.0,2715.0482744312494,0.3140094271726775,1.3212063147995672,0.9546330812734024,0.2874746375,0.6710028805257696
0.034,1.7711000000000001,1.0,2718.503820259285,0.3178572929681439,1.3207937833379566,0.9556258829260248,0.2874392,0.671847412537373
0.0345,1.7702437500000001,1.0,2721.5814718678553,0.3216835769481472,1.32037906650772,0.9565800289720029,0.2874032375,0.6726953244376338
0.035,1.7693750000000001,1.0,2724.299740492245,0.32548839843082933,1.3199619900205042,0.9574974998875405,0.28736675,0.6735469545348176
0.035500000000000004,1.76849375,1.0,2726.677250011011,0.3292718767343323,1.3195423795879557,0.9583801497947854,0.2873297375,0.6744026391813356
0.036000000000000004,1.7676,1.0,2728.7327245861125,0.33303413117679814,1.3191200609217215,0.9592297159730232,0.2872922,0.6752627127465458
0.0365,1.76669375,1.0,2730.4849769777056,0.3367752810763689,1.3186948597334482,0.9600478275500941,0.2872541375,0.6761275075876204
0.037,1.765775,1.0,2731.9528975316484,0.3404954457511865,1.3182666017347826,0.9608360134531047,0.28721555,0.6769973540184735
0.0375,1.76484375,1.0,2733.15176687154,0.3441947403409496,1.3178351460372864,0.9615957120649079,0.2871764375,0.6778725125747986
0.038,1.7639,1.0,2734.099026679108,0.34787328339773566,1.3174003326255708,0.9623282742590654,0.28713679999999997,0.6787532807690595
0.0385,1.76294375,1.0,2734.8160531211624,0.351531199196999,1.316961966198196,0.9630349685363009,0.28709663750000003,0.679640025458462
0.039,1.761975,1.0,2735.3140702440714,0.3551686004436191,1.316519944018428,0.963716995251882,0.28705595,0.6805329242301377
0.0395,1.7609937500000001,1.0,2735.6043334690485,0.3587855998424754,1.3160741633495343,0.9643754851288727,0.2870147375,0.6814321532617726
0.04,1.76,1.0,2735.698125177499,0.3623823100984473,1.3156245214547815,0.9650115040385331,0.286973,0.682337887297322
0.0405,1.7589937500000001,1.0,2735.6067505307724,0.3659588439164143,1.315170915597436,0.9656260574036696,0.2869307375,0.6832502996220468
0.041,1.757975,1.0,2735.341533523181,0.3695153140012559,1.314713243040765,0.9662200942583331,0.28688795,0.6841695620368761
0.0415,1.75694375,1.0,2734.913813270021,0.3730518330578515,1.314251401048035,0.9667945109940009,0.2868446375,0.6850958448321016
0.042,1.7559,1.0,2734.3349405288473,0.37656851379108053,1.3137852868825128,0.9673501548194566,0.28680079999999997,0.6860293167603926
0.0425,1.75484375,1.0,2733.616274455202,0.3800654689058225,1.3133147978074653,0.9678878269589679,0.2867564375,0.6869701450091428
0.043000000000000003,1.753775,1.0,2732.763693719398,0.3835428022741068,1.3128398809208566,0.9684082882615488,0.28671155,0.6879183957443377
0.043500000000000004,1.75269375,1.0,2731.7866331344167,0.3870006266505065,1.3123604510693796,0.9689122579738745,0.28666613750000003,0.6888741983664979
0.044,1.7516,1.0,2730.701821362746,0.3904390660981681,1.3118763568365301,0.9694004139951558,0.2866202,0.6898378126478741
0.0445,1.75049375,1.0,2729.5148081812117,0.39385822557831013,1.3113875483615607,0.9698734039765429,0.2865737375,0.6908092944049002
0.045,1.7493750000000001,1.0,2728.2311445713976,0.397258210052151,1.310893975783724,0.9703318422349648,0.28652675,0.6917886984100424
0.0455,1.74824375,1.0,2726.8563817182817,0.40063912448090927,1.3103955892422725,0.9707763117897226,0.2864792375,0.6927760783767298
0.046,1.7471,1.0,2725.3960700641283,0.40400107382580336,1.3098923388764594,0.9712073662556372,0.2864312,0.6937714869441252
0.0465,1.7459437500000001,1.0,2723.85575841664,0.40734416304805177,1.309384174825537,0.9716255316041362,0.28638263750000004,0.6947749756617396
0.047,1.744775,1.0,2722.240993113025,0.4106684971088729,1.3088710472287584,0.9720313078026656,0.28633355,0.6957865949738844
0.0475,1.74359375,1.0,2720.557317239311,0.4139741809694853,1.3083529062253758,0.972425170341905,0.28628393750000003,0.6968063942039688
0.048,1.7424,1.0,2718.810269903339,0.4172613195911074,1.3078297019546423,0.9728075716594508,0.2862338,0.6978344215386354
0.0485,1.74119375,1.0,2717.0053855653027,0.4205300179349577,1.3073013845558104,0.9731789424678788,0.2861831375,0.698870724011741
0.049,1.739975,1.0,2715.1481934207236,0.4237803809622547,1.3067679041681328,0.9735396929944413,0.28613195,0.6999153474881737
0.0495,1.73874375,1.0,2713.244216840768,0.4270125136342168,1.3062292109308624,0.9738902141390289,0.2860802375,0.7009683366475171
0.05,1.7375,1.0,2711.2946528877574,0.4302265067809543,1.3056852943818196,0.9742308795564353,0.286028,0.7020296581591209
0.0505,1.73624375,1.0,2709.3060014960142,0.4334224734900604,1.3051360956743294,0.9745620450003486,0.2859752375,0.7030993721831202
0.051000000000000004,1.734975,1.0,2707.2843148982165,0.43660052379978237,1.3045815599703474,0.9748840498157016,0.28592195,0.704177529738615
0.051500000000000004,1.73369375,1.0,2705.231933890804,0.43976075460107367,1.3040216662429447,0.975197218668869,0.2858681375,0.7052641149708659
0.052000000000000005,1.7324,1.0,2703.15119635262,0.4429032627848876,1.3034563934651926,0.9755018616423201,0.2858138,0.7063591111769714
0.0525,1.73109375,1.0,2701.0444371160143,0.44602814524217765,1.3028857206101623,0.9757982750140405,0.28575893750000003,0.7074625007986695
0.053,1.729775,1.0,2698.91398784742,0.4491354988638972,1.3023096266509249,0.9760867419887724,0.28570355000000003,0.7085742654151097
0.0535,1.72844375,1.0,2696.762176938458,0.4522254205409997,1.3017280905605517,0.9763675333844406,0.2856476375,0.709694385735598
0.054,1.7271,1.0,2694.5913294059264,0.45529800716443847,1.301141091312114,0.9766409082768698,0.2855912,0.7108228415923119
0.0545,1.7257437500000001,1.0,2692.403766802436,0.45835335562516694,1.3005486078786828,0.9769071146056614,0.2855342375,0.7119596119329905
0.055,1.724375,1.0,2690.201807136011,0.4613915628141385,1.2999506192333294,0.9771663897438729,0.28547675,0.7131046748135913
0.0555,1.72299375,1.0,2687.9877648004626,0.46441272562230657,1.2993471043491251,0.977418961033948,0.2854187375,0.7142580073909247
0.056,1.7216,1.0,2685.763950514589,0.4674169409406246,1.298738042199141,0.9776650462921612,0.2853602,0.7154195859152559
0.0565,1.72019375,1.0,2683.5326712718324,0.4704043056600459,1.2981234117564484,0.9779048542836681,0.28530113749999997,0.7165893857228799
0.057,1.718775,1.0,2681.2962478185596,0.47337491396591996,1.2975031918334547,0.9781385849174281,0.28524155,0.7177673815335033
0.0575,1.71734375,1.0,2679.0576245320876,0.4763288319176903,1.2968773554857727,0.9783664271202789,0.2851814375,0.7189535580349942
0.058,1.7159,1.0,2676.818150311473,0.4792661982529445,1.2962458903683787,0.978588569374856,0.2851208,0.7201478713005312
0.0585,1.71444375,1.0,2674.5786180552914,0.4821871013863493,1.2956087892210775,0.9788051884675832,0.2850596375,0.7213502670129102
0.059000000000000004,1.7129750000000001,1.0,2672.339819339002,0.48509162973257147,1.2949660447836742,0.9790164541505448,0.28499795,0.7225606901297051
0.059500000000000004,1.71149375,1.0,2670.102544414549,0.4879798717062778,1.2943176497959736,0.9792225294746324,0.2849357375,0.7237790848806589
0.06,1.71,1.0,2667.8675822102227,0.4908519157221351,1.2936635969977808,0.9794235711043947,0.284873,0.725005394765067
0.0605,1.7084937500000001,1.0,2665.635720332501,0.49370785019481017,1.2930038791289005,0.9796197296157289,0.2848097375,0.7262395625491604
0.061,1.7069750000000001,1.0,2663.4077450683117,0.49654776353896973,1.2923384889291378,0.9798111497774699,0.28474595,0.7274815302634833
0.0615,1.7054437500000001,1.0,2661.1844413889216,0.4993717441692806,1.2916674191382977,0.9799979708178679,0.2846816375,0.7287312392002696
0.062,1.7039,1.0,2658.966592955345,0.5021798805004096,1.2909906624961849,0.9801803266768734,0.2846168,0.7299886299108145
0.0625,1.70234375,1.0,2656.754982123597,0.5049722609470234,1.2903082117426046,0.9803583462450814,0.2845514375,0.7312536422028415
0.063,1.7007750000000001,1.0,2654.5503899527353,0.5077489739237889,1.2896200596173615,0.9805321535901425,0.28448555,0.7325262151378699
0.0635,1.69919375,1.0,2652.3535962131577,0.5105101078453729,1.2889261988602605,0.9807018681713785,0.28441913750000003,0.7338062870285753
0.064,1.6976,1.0,2650.165379395818,0.513255751126442,1.288226622211107,0.9808676050433073,0.2843522,0.7350937954361474
0.0645,1.69599375,1.0,2647.98651672364,0.5159859921816631,1.2875213224097053,0.9810294750487172,0.2842847375,0.7363886771676477
0.065,1.694375,1.0,2645.8177841630986,0.518700919425703,1.2868102921958606,0.9811875850019102,0.28421675,0.7376908682733581
0.0655,1.69274375,1.0,2643.659956437393,0.5214006212732284,1.286093524309378,0.9813420378626728,0.2841482375,0.7390003040441304
0.066,1.6911,1.0,2641.5126623960364,0.524085184376085,1.2853710220663128,0.981492933299897,0.2840792,0.7403168997602934
0.0665,1.6894437500000001,1.0,2639.375204212817,0.5267546903512061,1.2846427918082455,0.981640367245703,0.2840096375,0.7416405646416067
0.067,1.687775,1.0,2637.248546790322,0.5294092227250015,1.2839088245118262,0.9817844316376305,0.28393955,0.742971235217835
0.0675,1.68609375,1.0,2635.1332773414597,0.5320488649981548,1.2831691146336264,0.9819252153567286,0.2838689375,0.7443088409362506
0.068,1.6844000000000001,1.0,2633.0299821778503,0.5346737006713504,1.2824236566302176,0.9820628041910077,0.2837978,0.7456533105089826
0.0685,1.68269375,1.0,2630.9378188469664,0.5372838122363126,1.281672458177895,0.9821972815248973,0.2837261375,0.7470045481633353
0.069,1.680975,1.0,2628.8566455576124,0.5398792835086892,1.2809155204762428,0.9823287276645366,0.28365395,0.7483624692460511
0.0695,1.67924375,1.0,2626.788764737024,0.5424601977629894,1.280152822080073,0.98245721908438,0.28358123749999997,0.7497270289559022
0.07,1.6775,1.0,2624.73370639908,0.5450266354501832,1.2793843672093537,0.9825828306787302,0.283508,0.7510981357111896
0.07050000000000001,1.67574375,1.0,2622.691001354871,0.5475786770212404,1.2786101600840525,0.9827056348258923,0.2834342375,0.7524756973786308
0.07100000000000001,1.673975,1.0,2620.6601812026397,0.5501164029271312,1.277830204924137,0.9828257014883934,0.28335995,0.7538596212749108
0.07150000000000001,1.67219375,1.0,2618.640778317736,0.5526398936188252,1.2770445059495756,0.982943098308552,0.2832851375,0.7552498141682256
0.07200000000000001,1.6704,1.0,2616.632325843668,0.5551492295472926,1.2762530673803356,0.9830578906996473,0.2832098,0.7566461822798334
0.0725,1.66859375,1.0,2614.6076942979153,0.5576444891358603,1.2754561410635465,0.9831701529767591,0.2831339375,0.7580481962703429
0.073,1.6667750000000001,1.0,2612.629089387151,0.5601257539516117,1.2746531492440036,0.9832799201414981,0.28305755,0.7594567844717828
0.0735,1.664944744119102,1.0,2610.717225438291,0.5625931017322906,1.2738443478796724,0.9833872627528558,0.2829806792530023,0.7608714066784342
0.074,1.663112229395178,1.0,2609.2805818210413,0.5650466095798476,1.2730301147355294,0.9834922545647462,0.2829037136345975,0.7622913152024988
0.0745,1.6612797146712541,1.0,2608.3878499206685,0.5674863545962333,1.2722108275765514,0.983594967133963,0.2828267480161927,0.7637157696112533
0.075,1.65944719994733,1.0,2607.9981260645964,0.569912413883398,1.2713868641677144,0.9836954699102992,0.28274978239778786,0.7651440368533626
