Time [s],Phi [rad],STIM [ ],Fsee [N],Gamma [ ],Lcerel [ ],q [ ],Lmtc [m],fisomrel [ ]
0.0,1.8,1.0,18.176908750281562,0.0004659040141373528,1.3793163153250736,0.005056118204089082,0.288653,0.5411962146945452
0.0005,1.79999375,1.0,18.630131803988647,0.00607249996990922,1.379263321236953,0.01425452895681565,0.2886527375,0.5413244042229459
0.001,1.799975,1.0,22.310082915716347,0.011647647355187094,1.3788682112431798,0.038023768783142724,0.28865195,0.5422795870835245
0.0015,1.79994375,1.0,32.503387515062734,0.01719152257251271,1.3779253973195786,0.07388185648070204,0.2886506375,0.5445548280001231
0.002,1.7999,1.0,56.49037146352201,0.022704301032894704,1.3761819691430077,0.11858589873691987,0.2886488,0.5487472133025804
0.0025,1.79984375,1.0,101.8539008439596,0.028186157165026246,1.3737097159122502,0.16877221241810125,0.28864643749999996,0.5546589548239325
0.003,1.7997750000000001,1.0,167.02339885653484,0.03363726441887875,1.3709894156919111,0.22160372807393233,0.28864354999999997,0.5611187928717295
0.0035,1.79969375,1.0,244.48128112343414,0.03905779527144956,1.368376815586247,0.2749080752002217,0.2886401375,0.5672784494213525
0.004,1.7996,1.0,328.6683602913492,0.04444792123188741,1.365966406277903,0.327071290200833,0.2886362,0.5729227980740974
0.0045000000000000005,1.7994937500000001,1.0,416.7018248964378,0.049807812838944525,1.363749093441047,0.37697681470668837,0.2886317375,0.5780822609082158
0.005,1.799375,1.0,506.98790324454046,0.055137639712100124,1.361697992696719,0.42393412051586543,0.28862675,0.5828270474463144
0.0055,1.79924375,1.0,598.4195491974671,0.06043757044752782,1.359790258418565,0.4675859262307654,0.2886212375,0.5872161031476473
0.006,1.7991000000000001,1.0,690.148451917546,0.06570777279007863,1.3580081009131173,0.5078150884687693,0.2886152,0.5912952795936965
0.006500000000000001,1.79894375,1.0,781.4548473673752,0.07094841340777035,1.3563382822515941,0.544666962769592,0.2886086375,0.59509894324612
0.007,1.798775,1.0,871.7653763879715,0.07615965827605742,1.3547698363198015,0.5782885369709232,0.28860155,0.5986554950179248
0.0075,1.79859375,1.0,960.5855492675978,0.08134167204302697,1.3532940631403456,0.6088852790220638,0.2885939375,0.601987579559265
0.008,1.7984,1.0,1047.5468483649427,0.08649461891507536,1.3519029939170815,0.6366903061696247,0.2885858,0.6051156979342938
0.0085,1.79819375,1.0,1132.3324341880991,0.09161866189566036,1.350590043920745,0.6619450119146222,0.2885771375,0.6080568274988842
0.009000000000000001,1.797975,1.0,1214.6966414873532,0.09671396288200089,1.3493492997562468,0.6848861531054751,0.28856795,0.6108261057392219
0.0095,1.79774375,1.0,1294.4760471288703,0.10178068311886461,1.3481751130352468,0.7057382648407022,0.2885582375,0.6134377891036131
0.01,1.7975,1.0,1371.559706806472,0.10681898360057863,1.3470623183104837,0.7247098820986779,0.288548,0.6159048061509964
0.0105,1.79724375,1.0,1445.8387519947032,0.11182902292188737,1.3460066911057695,0.7419920899662105,0.2885372375,0.6182377860651678
0.011,1.796975,1.0,1517.2667570452902,0.11681095966902257,1.3450040097464457,0.7577577863628889,0.28852595000000003,0.6204471723816147
0.0115,1.79669375,1.0,1585.835233057359,0.1217649514532592,1.344050279489794,0.7721624286953995,0.2885141375,0.6225427461192432
0.012,1.7964,1.0,1651.56535383437,0.12669115612457751,1.34314174461233,0.7853451433640486,0.28850180000000003,0.6245336195931331
0.0125,1.79609375,1.0,1714.460851511055,0.13158972848210007,1.3422753530600848,0.7974302428285228,0.2884889375,0.626427240712992
0.013000000000000001,1.7957750000000001,1.0,1774.559952965272,0.13646082326296324,1.3414480648442322,0.80852832312602,0.28847555,0.6282309279787277
0.0135,1.79544375,1.0,1831.9236513945705,0.14130459458977304,1.3406569464839504,0.8187377115041087,0.2884616375,0.6299516735083895
0.014,1.7951000000000001,1.0,1886.6279653085076,0.1461211968461365,1.3398992160036565,0.8281458166173952,0.2884472,0.6315960553574608
0.0145,1.79474375,1.0,1938.7385603057817,0.15091078250242956,1.3391724780786258,0.8368304354191979,0.2884322375,0.6331697388839417
0.015,1.794375,1.0,1988.3140719495236,0.15567350200539642,1.3384746396350202,0.8448608237893169,0.28841675,0.6346776732268598
0.0155,1.79399375,1.0,2035.4312659759737,0.1604095058017814,1.3378036075990019,0.8522985940264673,0.2884007375,0.6361247534856492
0.016,1.7936,1.0,2080.1812046387618,0.16511894412466088,1.3371573126270933,0.8591986253199746,0.2883842,0.6375157734122339
0.0165,1.7931937500000001,1.0,2122.65139540154,0.16980196605006279,1.3365338768904045,0.8656099113727584,0.2883671375,0.6388550692127363
0.017,1.792775,1.0,2162.9392468731426,0.17445872133214654,1.3359314539631137,0.8715762097374181,0.28834955,0.6401468693821059
0.0175,1.7923437500000001,1.0,2201.111577603495,0.17908935585651367,1.335348625686893,0.8771367662558524,0.2883314375,0.6413944491387505
0.018000000000000002,1.7919,1.0,2237.2444874102885,0.18369401550876568,1.3347839739034142,0.8823267264025743,0.2883128,0.6426010549025449
0.0185,1.79144375,1.0,2271.422586066406,0.1882728461745041,1.3342360804543496,0.8871776138952275,0.2882936375,0.6437699060029132
0.019,1.790975,1.0,2303.7283330499595,0.1928259925295509,1.3337036254635517,0.8917177735449136,0.28827395,0.6449039870933725
0.0195,1.79049375,1.0,2334.254462499874,0.19735360045783545,1.3331852552816692,0.8959727044452596,0.2882537375,0.6460063318331917
0.02,1.79,1.0,2363.0768873217958,0.20185581318578663,1.3326798423792585,0.8999654410079843,0.288233,0.6470794721763766
0.0205,1.78949375,1.0,2390.260076571464,0.20633277180571802,1.332186421103802,0.903716812725755,0.2882117375,0.6481255791908406
0.021,1.788975,1.0,2415.872913547051,0.21078461740994323,1.3317040258027812,0.9072456529598214,0.28818995000000003,0.6491468088846551
0.021500000000000002,1.78844375,1.0,2439.988328523015,0.21521149109077584,1.3312316908236785,0.910569017623441,0.2881676375,0.6501453029148183
0.022,1.7879,1.0,2462.6775711362393,0.21961353281551899,1.3307685020069762,0.9137023873286203,0.2881448,0.6511230806124395
0.0225,1.78734375,1.0,2484.0123388081574,0.22399088312307783,1.330313572192264,0.9166598314614639,0.28812143749999997,0.6520820919183226
0.023,1.786775,1.0,2504.060658517732,0.22834368186076992,1.3298660770012107,0.9194541627736483,0.28809755,0.653024142996911
0.0235,1.78619375,1.0,2522.8755968106125,0.23267206502179447,1.329425357901432,0.9220970851298095,0.28807313749999996,0.6539506810316119
0.024,1.7856,1.0,2540.512324548304,0.23697616859935078,1.3289907563605432,0.9245992781297169,0.2880482,0.6548631448638957
0.0245,1.78499375,1.0,2557.0279403568834,0.24125612858663809,1.328561613846161,0.9269705008496364,0.2880227375,0.6557629652640506
0.025,1.784375,1.0,2572.4813036911532,0.24551208097685565,1.3281372718259004,0.9292196838191852,0.28799675,0.6566515651742831
0.025500000000000002,1.78374375,1.0,2586.9223622217264,0.24974415917258858,1.3277171699459198,0.9313550258898616,0.2879702375,0.657530154727797
0.026000000000000002,1.7831000000000001,1.0,2600.410278933119,0.2539525004064888,1.3273006745714446,0.9333840399569939,0.2879432,0.6584000906411904
0.0265,1.78244375,1.0,2612.9953081207796,0.2581372386626758,1.326887246934351,0.9353136424858441,0.2879156375,0.6592625248459206
0.027,1.781775,1.0,2624.7161463851735,0.26229850434270985,1.3264764654617152,0.9371502128943315,0.28788755,0.6601183593738058
0.0275,1.7810937500000001,1.0,2635.6123701295605,0.26643642784815125,1.326067908580614,0.938899627054922,0.2878589375,0.6609684916896186
0.028,1.7804,1.0,2645.724360032005,0.2705511395805602,1.3256611547181234,0.9405673036951064,0.2878298,0.6618138147565641
0.0285,1.77969375,1.0,2655.093229457657,0.27464276994149717,1.3252557823013202,0.9421582459606563,0.2878001375,0.6626552170904215
0.029,1.778975,1.0,2663.7607568116982,0.27871144933252234,1.324851369757281,0.9436770786985254,0.28776995,0.6634935828023543
0.029500000000000002,1.7782437500000001,1.0,2671.760760876995,0.2827573045097072,1.3244475741652102,0.9451280913766111,0.2877392375,0.6643296288849185
0.03,1.7775,1.0,2679.136637632947,0.28678046799816886,1.3240439692718233,0.9465152488584737,0.287708,0.6651642410030665
0.0305,1.77674375,1.0,2685.922012679121,0.2907810675463726,1.3236402228764976,0.94784223910621,0.2876762375,0.6659981063024584
0.031,1.775975,1.0,2692.1438928688103,0.29475922762133244,1.3232360669544434,0.9491124932313242,0.28764395,0.666831776211169
0.0315,1.7751937500000001,1.0,2697.829609203991,0.2987150726900625,1.3228312334808712,0.9503291999856907,0.2876111375,0.6676657993916431
0.032,1.7744,1.0,2703.0067865191154,0.30264872721957675,1.3224254544309908,0.951495325874164,0.2875778,0.6685007217314065
0.0325,1.77359375,1.0,2707.7033147572024,0.30656031567688935,1.322018461780013,0.9526136333651746,0.2875439375,0.669337086329191
0.033,1.772775,1.0,2711.947321838919,0.3104499625290144,1.3216099875031475,0.9536866973995821,0.28750955,0.6701754334764838
0.0335,1.7719437500000002,1.0,2715.767416232565,0.31431779213614014,1.321199761132449,0.9547169200664556,0.2874746375,0.6710163056392144
0.034,1.7711000000000001,1.0,2719.190373579929,0.31816392687952916,1.3207875306139598,0.95570654609243,0.2874392,0.6718602047276716
0.0345,1.7702437500000001,1.0,2722.23243036407,0.32198848856685797,1.3203731412937074,0.9566576841281987,0.2874032375,0.6727074309234764
0.035,1.7693750000000001,1.0,2724.9143464806675,0.325791597302086,1.3199563984702982,0.9575723019399476,0.28736675,0.6735583644066192
0.035500000000000004,1.76849375,1.0,2727.256998959301,0.3295733731891726,1.3195371074423385,0.9584522418962094,0.2873297375,0.6744133831868093
0.036000000000000004,1.767600968012382,1.0,2729.3332538314876,0.33333393461273225,1.3191150390376485,0.959299226431993,0.28729224065652004,0.6752729332270411
0.0365,1.7667058873933952,1.0,2731.6004393153735,0.33707340020532006,1.3186902048698217,0.9601148954261264,0.2872546472705226,0.6761369684949972
0.037,1.765810806774408,1.0,2734.1284656884736,0.34079189505584073,1.3182630102568644,0.9609008283576083,0.2872170538845251,0.6770046438209152
0.0375,1.7649157261554211,1.0,2736.898494397431,0.34448953424921125,1.3178336294750688,0.9616584833060468,0.2871794604985277,0.6778755866540329
0.038,1.7640206455364342,1.0,2739.8916815619787,0.34816643287034865,1.3174022368007279,0.9623892305332666,0.2871418671125302,0.6787494262560416
0.0385,1.763125564917447,1.0,2743.0891698653018,0.3518227060041701,1.316969006510134,0.963094358740795,0.2871042737265328,0.6796257937244217
0.039,1.7622304842984602,1.0,2746.4720811159286,0.3554584687355925,1.3165341128795798,0.9637750808166252,0.28706668034053534,0.6805043220138312
0.0395,1.7613354036794733,1.0,2750.0215094844657,0.35907383614953303,1.3160977301853576,0.9644325391179542,0.2870290869545379,0.681384645955564
0.04,1.7604403230604864,1.0,2753.7185154131676,0.3626689233309086,1.3156600327037602,0.965067810331906,0.2869914935685404,0.6822664022750671
0.0405,1.7595452424414992,1.0,2757.544120198683,0.36624384536463644,1.31522119471108,0.9656819099520392,0.28695390018254296,0.6831492296075238
0.041,1.7586501618225123,1.0,2761.482719092228,0.3697987158617283,1.314781359597122,0.966275793473297,0.2869163067965455,0.684032830517179
0.0415,1.7577550812035254,1.0,2765.523266529948,0.37333364708698913,1.3143406292381798,0.9668503595654148,0.28687871341054805,0.6849169923792895
0.042,1.7568600005845383,1.0,2769.655293670693,0.37684875012970936,1.3138991000608782,0.9674064569326314,0.2868411200245506,0.6858015146076875
0.0425,1.7559649199655514,1.0,2773.86860105471,0.3803441358507668,1.313456865816858,0.9679448879712984,0.28680352663855313,0.6866862030365827
0.043000000000000003,1.7550698393465645,1.0,2778.153064835572,0.38381991497905216,1.3130140193244249,0.9684664119177894,0.2867659332525557,0.6875708664106142
0.043500000000000004,1.7541747587275773,1.0,2782.5068654271495,0.3872761877553443,1.3125705783803796,0.9689717400796561,0.2867283398665582,0.6884554640655451
0.044,1.7532796781085904,1.0,2786.9076888191653,0.3907130818798465,1.312126745105012,0.9694615651778129,0.2866907464805608,0.6893395886165525
0.0445,1.7523845974896035,1.0,2791.351113062307,0.39413070279204415,1.3116825601732727,0.9699365279481091,0.28665315309456335,0.6902231558795735
0.045,1.7514895168706164,1.0,2795.8327026843976,0.39752915593142235,1.3112380642601118,0.9703972362361154,0.2866155597085659,0.6911060821288856
0.0455,1.7505944362516295,1.0,2800.3480083909376,0.4009085467374664,1.31079329804048,0.9708442670072578,0.28657796632256843,0.6919882840979636
0.046,1.7496993556326426,1.0,2804.8925668032953,0.4042689806496615,1.3103483021893276,0.9712781682153852,0.286540372936571,0.6928696789802353
0.0465,1.7488042750136557,1.0,2809.4619002331133,0.40761056310749283,1.3099031173816051,0.9716994605410111,0.2865027795505735,0.6937501844297291
0.047,1.7479091943946685,1.0,2814.0515164935928,0.4109333995504456,1.309457784292263,0.9721086390094725,0.28646518616457606,0.6946297185616175
0.0475,1.7470141137756816,1.0,2818.656908747663,0.41423759541800514,1.3090123435962515,0.9725061744983705,0.28642759277857865,0.6955081999526538
0.048,1.7461190331566947,1.0,2823.2735553919656,0.4175232561496565,1.308566835968521,0.9728925151428273,0.28638999939258114,0.6963855476415047
0.0485,1.7452239525377076,1.0,2827.8969199791845,0.4207904871848851,1.3081213020840223,0.973268087646387,0.28635240600658374,0.6972616811289754
0.049,1.7443288719187207,1.0,2832.52460308554,0.4240393859776628,1.3076757634166614,0.9736332962266306,0.2863148126205863,0.698136558054766
0.0495,1.7434337912997337,1.0,2837.1546600963106,0.4272700541285127,1.307230237315371,0.9739885263937955,0.2862772192345888,0.6990101443850154
0.05,1.7425387106807466,1.0,2841.780381298496,0.43048261231339413,1.3067847835211317,0.9743341508088148,0.28623962584859136,0.6998823233414935
0.0505,1.7416436300617597,1.0,2846.400716083513,0.43367715834141235,1.3063394112089457,0.9746705189929069,0.2862020324625939,0.7007530776152948
0.051000000000000004,1.7407485494427728,1.0,2851.0146105359804,0.4368537900216726,1.3058941295538158,0.9749979645747925,0.28616443907659644,0.701622390001637
0.051500000000000004,1.7398534688237857,1.0,2855.6210074514934,0.44001260516328033,1.3054489477307445,0.9753168061543137,0.286126845690599,0.7024902433998117
0.052000000000000005,1.7389583882047988,1.0,2860.218846355766,0.4431537015753408,1.3050038749147341,0.9756273481117921,0.2860892523046015,0.7033566208131289
0.0525,1.7380633075858118,1.0,2864.807063525905,0.44627717706695924,1.3045589202807872,0.9759298813669885,0.28605165891860407,0.7042215053488555
0.053,1.737168226966825,1.0,2869.3845920136864,0.44938312944724107,1.3041140930039061,0.976224684091206,0.28601406553260666,0.7050848802181491
0.0535,1.7362731463478378,1.0,2873.9503616700576,0.4524716565252916,1.3036694022590938,0.9765120223758135,0.28597647214660915,0.7059467287359844
0.054,1.735378065728851,1.0,2878.503299172821,0.4555428561102161,1.303224857221352,0.9767921508602061,0.28593887876061175,0.7068070343210799
0.0545,1.734482985109864,1.0,2883.0423280543623,0.4585968260111199,1.3027804670656837,0.9770653133219881,0.2859012853746143,0.7076657804958113
0.055,1.7335879044908769,1.0,2887.5663687329347,0.4616336640371083,1.3023362409670916,0.9773317432319486,0.28586369198861683,0.7085229508861248
0.0555,1.73269282387189,1.0,2892.074338544893,0.4646534679972867,1.3018921881005776,0.9775916642762106,0.28582609860261937,0.7093785292214461
0.056,1.731797743252903,1.0,2896.5651517788683,0.4676563357007603,1.3014483176411444,0.9778452908477507,0.2857885052166219,0.7102324993345781
0.0565,1.730902662633916,1.0,2901.0399913903366,0.47064233087075286,1.3010046187348794,0.9780928242681522,0.28575091183062445,0.7110848836105546
0.057,1.730007582014929,1.0,2905.496696308817,0.47361158836563594,1.300561110024087,0.9783344657405859,0.285713318444627,0.7119356477713286
0.0575,1.729112501395942,1.0,2909.934827549586,0.476564205707674,1.3001177949358436,0.9785704041026672,0.2856757250586296,0.7127847868713232
0.058,1.728217420776955,1.0,2914.3544056483124,0.4795002720366959,1.2996746728467092,0.9788008196642629,0.2856381316726321,0.713632303744317
0.0585,1.727322340157968,1.0,2918.7554516046052,0.4824198764925302,1.2992317431332447,0.979025885577067,0.2856005382866347,0.714478201216326
0.059000000000000004,1.7264272595389811,1.0,2923.137986878159,0.48532310821500574,1.2987890051720103,0.9792457681755298,0.2855629449006372,0.7153224821056134
0.059500000000000004,1.7255321789199942,1.0,2927.5020333870557,0.4882100563439511,1.2983464583395663,0.979460627298963,0.28552535151463976,0.7161651492226959
0.06,1.724637098301007,1.0,2931.8476135045325,0.491080810019195,1.2979041020124733,0.9796706165959965,0.2854877581286423,0.7170062053703505
0.0605,1.7237420176820202,1.0,2936.174750056725,0.4939354583805663,1.2974619355672916,0.9798758838124861,0.28545016474264484,0.7178456533436239
0.061,1.7228469370630333,1.0,2940.4834663197307,0.49677409056789357,1.2970199583805815,0.980076571063889,0.2854125713566474,0.7186834959298395
0.0615,1.7219518564440461,1.0,2944.77378601719,0.49959679572100557,1.2965781698289034,0.9802728150930619,0.2853749779706499,0.7195197359086037
0.062,1.7210567758250592,1.0,2949.0457333176096,0.5024036629797309,1.2961365692888178,0.9804647475143615,0.28533738458465246,0.7203543760518151
0.0625,1.7201616952060723,1.0,2953.299332831656,0.5051947814838985,1.2956951561368852,0.9806524950448808,0.285299791198655,0.7211874191236705
0.063,1.7192666145870854,1.0,2957.534609609901,0.5079702403733368,1.295253929749666,0.980836179723582,0.2852621978126576,0.722018867880674
0.0635,1.7183715339680983,1.0,2961.7515891396924,0.5107301287878747,1.29481288950372,0.981015919119051,0.28522460442666014,0.7228487250716433
0.064,1.7174764533491114,1.0,2965.9502973430854,0.5134745358673409,1.2943720347756085,0.9811918265265432,0.2851870110406627,0.7236769934377167
0.0645,1.7165813727301245,1.0,2970.1307605740035,0.516203550751564,1.2939313649418913,0.9813640111549452,0.2851494176546652,0.724503675712362
0.065,1.7156862921111373,1.0,2974.2930056157793,0.5189172625803727,1.2934908793791289,0.9815325783042408,0.28511182426866777,0.7253287746213828
0.0655,1.7147912114921504,1.0,2978.437222939605,0.5216156838266752,1.293050576043269,0.9816976242049175,0.2850742308826703,0.7261522955379729
0.066,1.7138961308731635,1.0,2982.563770162583,0.5242989947633144,1.2926104514444696,0.9818592530842645,0.28503663749667285,0.7269742465097695
0.0665,1.7130010502541764,1.0,2986.672832043169,0.5269672791003257,1.2921705036064643,0.9820175590263498,0.2849990441106754,0.7277946327243144
0.067,1.7121059696351895,1.0,2990.764592952563,0.5296206160332476,1.2917307305636039,0.9821726325584552,0.28496145072467793,0.7286134593266134
0.0675,1.7112108890162026,1.0,2994.8392380864975,0.5322590847576187,1.2912911303502375,0.9823245610997811,0.28492385733868053,0.7294307314390338
0.068,1.7103158083972154,1.0,2998.896953457083,0.5348827644689779,1.290851701000716,0.9824734290900108,0.284886263952683,0.7302464541613207
0.0685,1.7094207277782285,1.0,3002.9379258863473,0.5374917343628633,1.2904124405493889,0.9826193181116962,0.2848486705666856,0.731060632570624
0.069,1.7085256471592416,1.0,3006.9623429976646,0.540086073634814,1.2899733470306063,0.9827623070068027,0.28481107718068815,0.7318732717215166
0.0695,1.7076305665402547,1.0,3010.9703932092257,0.5426658614803683,1.2895344184787187,0.9829024719877301,0.2847734837946907,0.7326843766460146
0.07,1.7067354859212676,1.0,3014.9622657265677,0.5452311770950649,1.289095652928076,0.9830398867431055,0.28473589040869324,0.7334939523536016
0.07050000000000001,1.7058404053022806,1.0,3018.9381505353927,0.5477820996744425,1.288657048413028,0.9831746225386316,0.2846982970226958,0.7343020038312462
0.07100000000000001,1.7049453246832935,1.0,3022.8982383946427,0.5503187084140394,1.2882186029679248,0.9833067483132489,0.2846607036366983,0.735108536043424
0.07150000000000001,1.7040502440643066,1.0,3026.842720829146,0.5528410825093946,1.2877803146271167,0.983436330770863,0.28462311025070086,0.7359135539321355
