Time [s],Phi [rad],STIM [ ],Fsee [N],Gamma [ ],Lcerel [ ],q [ ],Lmtc [m],fisomrel [ ]
0.0,1.8,1.0,17.965845402004415,1.0695136521349483e-05,1.379339893296055,0.0050000304697302945,0.288653,0.5411391752364083
0.0005,1.79999375,1.0,18.27553283611807,0.005619844454058711,1.3793025223446906,0.012942447119858324,0.2886527375,0.5412295808129957
0.001,1.799975,1.0,21.61774156788702,0.011197530878842628,1.378938367479732,0.03561220931300944,0.28865195,0.5421100562876136
0.0015,1.79994375,1.0,31.06961221920553,0.016743930893688065,1.378046171676852,0.07060668151767553,0.2886506375,0.5442636864811103
0.002,1.7999,1.0,53.58466968919167,0.02225921998975454,1.3763679836538862,0.11472373140358573,0.2886488,0.5483008318887375
0.0025,1.79984375,1.0,97.12366616852674,0.027743572674120625,1.3739349394061429,0.16458108546869604,0.28864643749999996,0.5541220060310086
0.003,1.7997750000000001,1.0,160.96493856594054,0.03319716247748969,1.3712140902860748,0.21728683932566628,0.28864354999999997,0.5605870509345725
0.0035,1.79969375,1.0,237.69133313015712,0.03862016195378924,1.3685844877651767,0.27061923643636043,0.2886401375,0.5667904189377624
0.004,1.7996,1.0,321.4755342910697,0.04401274269095134,1.3661558603006148,0.3229219460596813,0.2886362,0.5724805037229487
0.0045000000000000005,1.7994937500000001,1.0,409.2770280038047,0.04937507531609732,1.3639225963962258,0.37304033891767385,0.2886317375,0.5776796678323652
0.005,1.799375,1.0,499.42312505964946,0.05470732948663639,1.3618581379046442,0.4202529157262946,0.28862675,0.5824575511230343
0.0055,1.79924375,1.0,590.8002450951011,0.06000967393765567,1.3599386430243448,0.4641787485427771,0.2886212375,0.5868755524802083
0.006,1.7991000000000001,1.0,682.5280579105241,0.06528227642525311,1.3581462338911312,0.5046846033150297,0.2886152,0.5909798314719361
0.006500000000000001,1.79894375,1.0,773.8752101053153,0.07052530355420157,1.356467356856636,0.5418051774702964,0.2886086375,0.5948055596162106
0.007,1.798775,1.0,864.3033772042335,0.07573892197193287,1.3548901112506144,0.5756805722283992,0.28860155,0.5983833193129035
0.0075,1.79859375,1.0,953.2673369996814,0.08092329590679725,1.3534064081785242,0.6065133006455372,0.2885939375,0.6017344089870993
0.008,1.7984,1.0,1040.369607643504,0.08607858935171685,1.3520084821388183,0.6345352443514568,0.2885858,0.6048789174181289
0.0085,1.79819375,1.0,1125.3291003533122,0.09120496583422504,1.3506890309544668,0.6599872998387075,0.2885771375,0.6078354705619166
0.009000000000000001,1.797975,1.0,1207.8946577035742,0.09630258739752957,1.349442110514223,0.6831069498245853,0.28856795,0.6106192965540995
0.0095,1.79774375,1.0,1287.8822091812326,0.10137161521008334,1.348262256084625,0.7041200179228296,0.2885582375,0.6132442633509156
0.01,1.7975,1.0,1365.1705668160976,0.10641220995198324,1.3471443400692547,0.723236452869779,0.288548,0.6157232371105921
0.0105,1.79724375,1.0,1439.6726900616825,0.11142453112654419,1.346083781293975,0.740648628977219,0.2885372375,0.6180676540984187
0.011,1.796975,1.0,1511.3266811793894,0.11640873684110858,1.3450764990768234,0.7565309740084957,0.28852595000000003,0.6202876587528161
0.0115,1.79669375,1.0,1580.114772622712,0.12136498471712066,1.3441185576032666,0.7710403544040656,0.2885141375,0.622392915539054
0.012,1.7964,1.0,1646.063460581791,0.1262934326073685,1.3432060894637459,0.7843171245196329,0.28850180000000003,0.6243927938616176
0.0125,1.79609375,1.0,1709.1880388758175,0.13119423608743538,1.3423358732433142,0.7964866979575957,0.2884889375,0.626295120825056
0.013000000000000001,1.7957750000000001,1.0,1769.5116189524779,0.1360675494964741,1.341505015578201,0.807660792381858,0.28847555,0.6281069015782295
0.0135,1.79544375,1.0,1827.0890057117895,0.1409135271736374,1.3407106231046353,0.8179386946489534,0.2884616375,0.629835048799908
0.014,1.7951000000000001,1.0,1881.9832498436417,0.14573232247869075,1.3399500285436214,0.8274086911793085,0.2884472,0.631485899531859
0.0145,1.79474375,1.0,1934.2883597030316,0.1505240891325919,1.3392205019069656,0.8361491985287601,0.2884322375,0.6330658516772524
0.015,1.794375,1.0,1984.0620605381457,0.15528897774945646,1.3385199472996918,0.8442301369998727,0.28841675,0.6345798637761922
0.0155,1.79399375,1.0,2031.3732147453293,0.16002713859078863,1.3378463435437031,0.8517137292537135,0.2884007375,0.6360326790629787
0.016,1.7936,1.0,2076.3070411698714,0.16473872191809255,1.3371976694609022,0.8586553846185954,0.2883842,0.637428991422628
0.0165,1.7931937500000001,1.0,2118.949329583104,0.16942387661493907,1.3365720521202622,0.8651045502161364,0.2883671375,0.6387731305215418
0.017,1.792775,1.0,2159.401833535306,0.17408275250981073,1.3359675890167748,0.8711053657568171,0.28834955,0.6400694487571923
0.0175,1.7923437500000001,1.0,2197.7326255203093,0.17871549573199427,1.335382840577103,0.8766974249928278,0.2883314375,0.641321269918474
0.018000000000000002,1.7919,1.0,2234.018490836188,0.183322252347236,1.334816374365135,0.8819161825324857,0.2883128,0.6425318732684497
0.0185,1.79144375,1.0,2268.344829760109,0.18790316842128219,1.3342667579447585,0.8867934353595072,0.2882936375,0.6437045106285085
0.019,1.790975,1.0,2300.770028315208,0.19245838827621284,1.333732904322371,0.8913578324081292,0.28827395,0.6448416727441175
0.0195,1.79049375,1.0,2331.444521160224,0.1969880587179737,1.3332128827628171,0.8956349435232971,0.2882537375,0.6459476235997866
0.02,1.7900001960316245,1.0,2360.421283967171,0.20149232185221919,1.3327058806923924,0.8996480784550032,0.2882330082333282,0.6470242249767206
0.0205,1.789502409804561,1.0,2388.1070394891235,0.20597131910697097,1.3322112496934047,0.9034183117785546,0.2882121012117916,0.6480729769679412
0.021,1.7890046235774977,1.0,2414.7410262791796,0.21042519191025066,1.3317283413481615,0.9069646934161427,0.2881911941902549,0.649095368451523
0.021500000000000002,1.788506837350434,1.0,2440.3705710772665,0.21485408169007997,1.3312565072389713,0.9103044708154128,0.28817028716871823,0.6500928775887671
0.022,1.7880090511233706,1.0,2465.0399615731785,0.21925812912598447,1.330795149718925,0.9134532942957937,0.28814938014718156,0.6510668651863329
0.0225,1.787511264896307,1.0,2488.780686213686,0.22363747397758857,1.3303438121338382,0.9164254055467684,0.2881284731256449,0.6520183857936332
0.023,1.7870134786692435,1.0,2511.6252809600614,0.2279922541108265,1.3299020431213242,0.9192337580651923,0.28810756610410826,0.6529484755879336
0.0235,1.78651569244218,1.0,2533.607400084987,0.2323226070156564,1.3294693948925154,0.9218901521880832,0.2880866590825716,0.6538581563429839
0.024,1.7860179062151165,1.0,2554.7540625662837,0.23662866637097926,1.3290454951272592,0.9244053648992749,0.2880657520610349,0.6547482848739057
0.0245,1.7855201199880528,1.0,2575.106980969139,0.24091057225645615,1.3286298450545644,0.9267892230709512,0.28804484503949823,0.6556199774853732
0.025,1.7850223337609894,1.0,2594.70871872003,0.24516846527128627,1.328221950236587,0.9290507185909165,0.28802393801796156,0.656474334766873
0.025500000000000002,1.784524547533926,1.0,2613.583882354018,0.24940247719950553,1.3278214943733435,0.9311981153016573,0.2880030309964249,0.6573120785294257
0.026000000000000002,1.7840267613068623,1.0,2631.75794986055,0.25361273982514987,1.32742816116485,0.9332389944047412,0.2879821239748882,0.6581339262634089
0.0265,1.783528975079799,1.0,2649.2572196241317,0.2577993849322552,1.327041634311122,0.9351803200737036,0.28796121695335153,0.6589405912854285
0.027,1.7830311888527353,1.0,2666.108761583274,0.2619625443048574,1.3266615975121763,0.9370284979620683,0.28794030993181485,0.659732782878804
0.0275,1.7825334026256718,1.0,2682.340370607842,0.2661023497269924,1.3262877344680284,0.9387894274520155,0.28791940291027823,0.660511206427683
0.028,1.7820356163986082,1.0,2697.980522093982,0.2702189329826962,1.3259197288786948,0.9404685483809446,0.28789849588874156,0.6612765635447644
0.0285,1.7815378301715448,1.0,2713.0583297781827,0.2743124258560047,1.3255572644441913,0.942070882889498,0.2878775888672049,0.6620295521926496
0.029,1.7810400439444813,1.0,2727.593371520367,0.27838295380000916,1.3252001170131233,0.9436010834746077,0.2878566818456682,0.6627706756844736
0.029500000000000002,1.7805422577174177,1.0,2741.618842251754,0.28243065288139135,1.3248479430741773,0.945063442836695,0.28783577482413153,0.6635006820168242
0.03,1.7800444714903543,1.0,2755.1577991911845,0.286455651852598,1.3245004959037632,0.9464619480604451,0.2878148678025949,0.6642201153004202
0.0305,1.7795466852632906,1.0,2768.227728037139,0.2904580754349491,1.3241575828770562,0.947800302415406,0.28779396078105823,0.6649294051763535
0.031,1.7790488990362272,1.0,2780.846456949609,0.2944380483497644,1.3238190113692312,0.949081943891704,0.28777305375952156,0.6656289791959622
0.0315,1.7785511128091636,1.0,2793.032137596949,0.2983956953183638,1.3234845887554632,0.9503100675242758,0.2877521467379849,0.6663192628753473
0.032,1.7780533265821001,1.0,2804.803227025455,0.30233114106206704,1.3231541224109276,0.9514876455780449,0.2877312397164482,0.6670006797475232
0.0325,1.7775555403550365,1.0,2816.1784703516987,0.30624451030219413,1.3228274197107994,0.9526174458220941,0.28771033269491153,0.6676736514122046
0.033,1.777057754127973,1.0,2827.1768842776605,0.3101359277600648,1.3225042880302535,0.9537020480943189,0.28768942567337485,0.6683385975832248
0.0335,1.7765599679009096,1.0,2837.817741428079,0.314005518156999,1.3221845347444654,0.9547438593347938,0.2876685186518382,0.6689959361335853
0.034,1.776062181673846,1.0,2848.1105540143562,0.31785339645694777,1.3218680562252412,0.9557451346083854,0.2876476116303015,0.6696459004521205
0.0345,1.7755643954467826,1.0,2858.0818268324533,0.32167969722723044,1.3215545992979498,0.9567079703393202,0.2876267046087649,0.670289029561017
0.035,1.775066609219719,1.0,2867.7448209167405,0.32548454052491427,1.3212440305661612,0.9576343369392846,0.2876057975872282,0.6709256148775742
0.035500000000000004,1.7745688229926555,1.0,2877.1106005626903,0.3292680439234679,1.3209362374869664,0.9585260808930126,0.28758489056569153,0.67155590391489
0.036000000000000004,1.7740710367655919,1.0,2886.190365552003,0.3330303249963601,1.320631107517457,0.9593849325105618,0.28756398354415486,0.6721801431509213
0.0365,1.7735732505385284,1.0,2894.99544436729,0.3367715013170593,1.320328528114724,0.9602125145654502,0.2875430765226182,0.6727985780480056
0.037,1.773075464311465,1.0,2903.5372876871616,0.34049169045903444,1.3200283867358584,0.9610103501969752,0.28752216950108156,0.6734114530715684
0.0375,1.7725776780844014,1.0,2911.8274621622836,0.34419100999575397,1.3197305708379516,0.9617798701469159,0.2875012624795449,0.674019011708028
0.038,1.772079891857338,1.0,2919.8776444725872,0.34786957750068664,1.3194349678780948,0.9625224193934496,0.2874803554580082,0.6746214964818895
0.0385,1.7715821056302743,1.0,2927.6996156648984,0.3515275105473011,1.3191414653133793,0.963239263238577,0.28745944843647153,0.6752191489720316
0.039,1.7710843194032109,1.0,2935.305255771524,0.35516492670906596,1.3188499506008962,0.9639315928995617,0.28743854141493486,0.6758122098271877
0.0395,1.7705865331761472,1.0,2942.697640938515,0.35878192872662856,1.3185603890902038,0.9646005348832618,0.2874176343933982,0.6764007605315625
0.04,1.7700887469490838,1.0,2949.896122461937,0.3623786508172024,1.3182726042278194,0.9652471444925068,0.2873967273718615,0.6769851702743681
0.0405,1.7695909607220202,1.0,2956.9081644283706,0.36595520500833845,1.3179865243296267,0.9658724224178835,0.28737582035032483,0.677565594211619
0.041,1.7690931744949567,1.0,2963.740150383047,0.36951170127162936,1.3177020876503829,0.9664773138772874,0.28735491332878815,0.6781421667812131
0.0415,1.7685953882678933,1.0,2970.398514942633,0.3730482495786678,1.317419232444846,0.9670627118171375,0.28733400630725153,0.6787150219200411
0.042,1.7680976020408297,1.0,2976.8897415879196,0.37656495990104627,1.317137896967773,0.9676294603442342,0.28731309928571486,0.6792842930703388
0.0425,1.7675998158137662,1.0,2983.220360541107,0.3800619422103575,1.3168580194739221,0.9681783578983418,0.2872921922641782,0.6798501131857895
0.043000000000000003,1.7671020295867026,1.0,2989.3969467276497,0.38353930647819406,1.3165795382180507,0.9687101601875374,0.2872712852426415,0.6804126147373908
0.043500000000000004,1.7666042433596392,1.0,2995.4261178224638,0.38699716267614853,1.3163023914549163,0.969225582906289,0.28725037822110483,0.6809719297190717
0.044,1.7661064571325755,1.0,3001.314532380792,0.3904356207758135,1.3160265174392767,0.9697253042543791,0.28722947119956815,0.6815281896530694
0.0445,1.765608670905512,1.0,3007.068888053639,0.39385479074878166,1.3157518544258893,0.9702099672731005,0.28720856417803153,0.6820815255950639
0.045,1.7651108846784487,1.0,3012.6959198873533,0.3972547825666456,1.3154783406695116,0.9706801820136658,0.28718765715649486,0.6826320681390675
0.0455,1.764613098451385,1.0,3018.1992565002283,0.4006356958629541,1.3152059415860595,0.9711365281319421,0.2871667501349582,0.6831798928215741
0.046,1.7641153122243216,1.0,3023.584363194661,0.4039976398999914,1.31493460692828,0.971579556356768,0.2871458431134215,0.6837251063741385
0.0465,1.763617525997258,1.0,3028.860853916834,0.40734073811659915,1.3146642508973407,0.9720097893300524,0.28712493609188483,0.6842678865026002
0.047,1.7631197397701945,1.0,3034.032075401332,0.4106650922817517,1.3143948420835379,0.9724277249470238,0.28710402907034815,0.6848083012476636
0.0475,1.762621953543131,1.0,3039.101392909328,0.413970804164423,1.3141263490771664,0.9728338368498333,0.2870831220488115,0.6853464184166141
0.048,1.7621241673160675,1.0,3044.072189579361,0.4172579755335874,1.3138587404685225,0.9732285758354572,0.2870622150272748,0.6858823055851807
0.0485,1.7616263810890038,1.0,3048.9478658008497,0.4205267081582189,1.3135919848479012,0.9736123711692368,0.2870413080057381,0.6864160300993423
0.049,1.7611285948619404,1.0,3053.7318386090647,0.4237771038072918,1.3133260508055984,0.9739856318111975,0.2870204009842015,0.686947659077065
0.0495,1.760630808634877,1.0,3058.4275411018725,0.42700926424978014,1.3130609069319092,0.9743487475616855,0.28699949396266483,0.6874772594099823
0.05,1.7601330224078133,1.0,3063.038421878764,0.43022329125465814,1.3127965218171298,0.9747020901323192,0.28697858694112816,0.688004897765006
0.0505,1.75963523618075,1.0,3067.567944501381,0.4334192865908999,1.3125328640515554,0.9750460141477578,0.2869576799195915,0.68853064058588
0.051000000000000004,1.7591374499536863,1.0,3072.0195869761938,0.4365973520274796,1.3122699022254818,0.9753808580833334,0.2869367728980548,0.6890545540946685
0.051500000000000004,1.7586396637266228,1.0,3076.3968412586987,0.43975758933337145,1.3120076049292042,0.975706945143193,0.2869158658765182,0.6895767042931813
0.052000000000000005,1.7581418774995592,1.0,3080.703212779741,0.44290010027754956,1.3117459407530183,0.9760245840832149,0.2868949588549815,0.6900971569643355
0.0525,1.7576440912724958,1.0,3084.942219993878,0.446024986628988,1.3114848782872197,0.976334069982627,0.28687405183344483,0.6906159776734564
0.053,1.7571463050454323,1.0,3089.1121535501275,0.4491323143526399,1.3112244308970136,0.9766356840642493,0.28685314481190816,0.6911331428980549
0.0535,1.7566485188183687,1.0,3093.220493799107,0.45222222017004254,1.3109645334663231,0.9769296977368273,0.2868322377903715,0.6916487848407908
0.054,1.7561507325913053,1.0,3097.270862355782,0.4552948115683443,1.3107051539968675,0.9772163697179572,0.2868113307688348,0.6921629696421647
0.0545,1.7556529463642416,1.0,3101.2648144167592,0.45835018106139713,1.3104462782111204,0.9774959472584573,0.28679042374729813,0.6926757281405092
0.055,1.7551551601371782,1.0,3105.203911212191,0.4613884211630534,1.310187891831556,0.9777686671592285,0.28676951672576145,0.6931870910749202
0.0555,1.7546573739101146,1.0,3109.0897198486587,0.46440962438716515,1.309929980580648,0.9780347562996371,0.2867486097042248,0.6936970890857117
0.056,1.7541595876830511,1.0,3112.923813156792,0.46741388324758465,1.3096725301808698,0.9782944321349589,0.28672770268268816,0.6942057527148542
0.0565,1.7536618014559875,1.0,3116.7077695427038,0.47040129025816396,1.309415526354696,0.9785479031649366,0.2867067956611515,0.694713112406398
0.057,1.753164015228924,1.0,3120.443172844644,0.4733719379327554,1.3091589548246,0.978795369375352,0.2866858886396148,0.6952191985068906
0.0575,1.7526662290018606,1.0,3124.1316121938958,0.4763259187852111,1.308902801313056,0.9790370226543702,0.28666498161807813,0.6957240412657739
0.058,1.752168442774797,1.0,3127.774681880088,0.4792633253293831,1.3086470515425372,0.979273047185293,0.28664407459654145,0.6962276708357729
0.0585,1.7516706565477336,1.0,3131.373981221158,0.48218425007912374,1.308391691235518,0.979503619817231,0.28662316757500483,0.6967301172732683
0.059000000000000004,1.75117287032067,1.0,3134.931114437707,0.48508878554828516,1.3081367061144722,0.9797289104151078,0.28660226055346816,0.6972314105386588
0.059500000000000004,1.7506750840936065,1.0,3138.4476905322135,0.48797702425071954,1.3078820819018735,0.9799490821902943,0.2865813535319315,0.6977315804967095
0.06,1.7501772978665429,1.0,3141.925323172284,0.49084905870027895,1.3076278043201957,0.9801642920130991,0.2865604465103948,0.6982306569168859
0.0605,1.7496795116394794,1.0,3145.3656305789127,0.49370498141081565,1.3073738590919128,0.9803746907082318,0.28653953948885813,0.6987286694736764
0.061,1.749181725412416,1.0,3148.770235418763,0.49654488489618187,1.3071202319394986,0.9805804233343027,0.28651863246732145,0.6992256477469025
0.0615,1.7486839391853524,1.0,3152.1407647012948,0.4993688616702297,1.3068669085854268,0.9807816294483283,0.2864977254457848,0.6997216212220132
0.062,1.748186152958289,1.0,3155.4780384757464,0.5021769911653697,1.306613881609978,0.9809784427296038,0.2864768184242481,0.7002166058803012
0.0625,1.7476883667312253,1.0,3158.781543655747,0.5049693391951589,1.306361154878382,0.9811709914540384,0.2864559114027114,0.700710595604541
0.063,1.7471905805041619,1.0,3162.0553121521257,0.5077460464279728,1.306108693870028,0.9813594026868626,0.2864350043811748,0.7012036592384743
0.0635,1.7466927942770982,1.0,3165.300019422262,0.5105071957506686,1.3058564924709988,0.9815437960317774,0.28641409735963813,0.7016958099915112
0.064,1.7461950080500348,1.0,3168.516342864976,0.5132528700501032,1.3056045445673765,0.9817242867459172,0.28639319033810146,0.7021870610324183
0.0645,1.7456972218229712,1.0,3171.70496178469,0.5159831522131337,1.305352844045244,0.9819009859296144,0.2863722833165648,0.7026774254894161
0.065,1.7451994355959077,1.0,3174.866557358044,0.5186981251266172,1.3051013847906834,0.9820740007065475,0.2863513762950281,0.7031669164502786
0.0655,1.7447016493688443,1.0,3178.0018126007426,0.5213978716774106,1.3048501606897773,0.9822434343948251,0.2863304692734915,0.7036555469624265
0.066,1.7442038631417807,1.0,3181.111412334913,0.5240824747523709,1.304599165628608,0.9824093866695233,0.2863095622519548,0.7041433300330224
0.0665,1.7437060769147172,1.0,3184.1960431580633,0.5267520172383553,1.304348393493258,0.9825719537171616,0.28628865523041813,0.7046302786290592
0.067,1.7432082906876536,1.0,3187.256393412205,0.5294065820222206,1.30409783816981,0.9827312283825729,0.28626774820888146,0.705116405677449
0.0675,1.7427105044605902,1.0,3190.2931531541885,0.532046251990824,1.3038474935443463,0.9828873003085912,0.2862468411873448,0.7056017240651099
0.068,1.7422127182335265,1.0,3193.307014126623,0.5346711100310224,1.303597353502949,0.9830402560689561,0.2862259341658081,0.7060862466390478
0.0685,1.741714932006463,1.0,3196.2986697297283,0.5372812390296728,1.303347411931701,0.9831901792948086,0.28620502714427143,0.7065699862064379
0.069,1.7412171457793997,1.0,3199.2688149940527,0.5398767218736324,1.3030976627166848,0.9833371507951308,0.28618412012273475,0.7070529555347027
0.0695,1.740719359552336,1.0,3202.2181465540907,0.5424576414497582,1.3028480997439824,0.9834812486714557,0.2861632131011981,0.7075351673515908
0.07,1.7402215733252726,1.0,3205.1473626224442,0.545024080644907,1.3025987168996767,0.9836225484271607,0.28614230607966146,0.7080166343452466
