Time [s],Phi [rad],STIM [ ],Fsee [N],Gamma [ ],Lcerel [ ],q [ ],Lmtc [m],fisomrel [ ]
0.0,1.8,1.0,18.54453697947786,0.0007745939470168906,1.379275571970469,0.005154464586854691,0.288653,0.5412947720231939
0.0005,1.79999375,1.0,19.08583348665837,0.006379458396373105,1.3792134869418127,0.015198743266429733,0.2886527375,0.5414449340606877
0.001,1.799975,1.0,22.9955444119218,0.011952883987643579,1.3787998166463036,0.03970343300370386,0.28865195,0.5424448307038483
0.0015,1.79994375,1.0,33.72011219534729,0.0174950470686567,1.3778249803855822,0.07613411620638381,0.2886506375,0.5447968246066149
0.002,1.7999,1.0,58.74198320159293,0.0230061229966809,1.3760410956148648,0.12122310561573194,0.2886488,0.549085122476952
0.0025,1.79984375,1.0,105.32851722353263,0.028486286146285324,1.3735475916323627,0.1716220816005419,0.28864643749999996,0.5550452703624413
0.003,1.7997750000000001,1.0,171.34823052222427,0.033935709914162726,1.3708315152004664,0.2245312522863401,0.28864354999999997,0.5614923065501475
0.0035,1.79969375,1.0,249.26638270950454,0.03935456672288256,1.3682321896744107,0.27781088505217366,0.2886401375,0.5676181584425664
0.004,1.7996,1.0,333.69850491416304,0.04474302802982644,1.3658351449845656,0.32987567426874187,0.2886362,0.573229102978705
0.0045000000000000005,1.7994937500000001,1.0,421.8725752209041,0.05010126433262191,1.3636291746593343,0.379634481816657,0.2886317375,0.5783604060477403
0.005,1.799375,1.0,512.2263754815438,0.0554294451590086,1.3615877941906602,0.4264176988157806,0.28862675,0.5830812088403468
0.0055,1.79924375,1.0,603.6842581429702,0.06072773910826197,1.3596882803464418,0.4698833590297176,0.2886212375,0.5874500669050365
0.006,1.7991000000000001,1.0,695.3940663883161,0.06599631381768019,1.3579134576743106,0.5099252685100116,0.2886152,0.5915113418865416
0.006500000000000001,1.79894375,1.0,786.6559876338686,0.07123533597532379,1.356250073198209,0.5465956333169195,0.2886086375,0.5952993792929551
0.007,1.798775,1.0,876.8887565188447,0.07644497139954463,1.354687553822867,0.5800457954877954,0.28860155,0.5988416427396389
0.0075,1.79859375,1.0,965.6143289697958,0.08162538477489299,1.3532171120671477,0.6104833242447885,0.2885939375,0.6021609430578573
0.008,1.7984,1.0,1052.464061110676,0.08677674030697118,1.3518309311562182,0.6381422742473704,0.2885858,0.605277410337208
0.0085,1.79819375,1.0,1137.1228787885568,0.09189920075245676,1.350522510675153,0.6632640807312992,0.2885771375,0.6082078109374593
0.009000000000000001,1.797975,1.0,1219.3521144638237,0.09699292802621196,1.3492859271237734,0.6860849698248865,0.28856795,0.6109672867132847
0.0095,1.79774375,1.0,1298.9940508377792,0.10205808379097202,1.3481155319374112,0.7068286653885338,0.2885582375,0.6135700778824402
0.01,1.7975,1.0,1375.9176779414352,0.10709482811300072,1.347006481603346,0.7257029136281437,0.288548,0.616028385603529
0.0105,1.79724375,1.0,1450.0359169653652,0.1121033200144783,1.345954310725314,0.7428976683559592,0.2885372375,0.6183533638092248
0.011,1.796975,1.0,1521.304474747361,0.11708371790663599,1.3449548167006569,0.7585848549525375,0.28852595000000003,0.6205554031728834
0.0115,1.79669375,1.0,1589.7328728905472,0.12203618047796609,1.3440038286631641,0.7729189231362212,0.2885141375,0.6226446615595804
0.012,1.7964,1.0,1655.3107588549708,0.12696086365556816,1.3430980032533966,0.7860383231085086,0.28850180000000003,0.6246293372561617
0.0125,1.79609375,1.0,1718.0523641898642,0.13185792279597536,1.342234183736625,0.7980665278923698,0.2884889375,0.6265171029404529
0.013000000000000001,1.7957750000000001,1.0,1778.0052723408048,0.13672751305743192,1.3414092443658128,0.8091133873614138,0.28847555,0.6283154587422346
0.0135,1.79544375,1.0,1835.2348620301611,0.14156978900174025,1.3406202246479177,0.8192765864432601,0.2884616375,0.6300314494923536
0.014,1.7951000000000001,1.0,1889.804764586198,0.14638490419302144,1.3398644982743102,0.8286430284825531,0.2884472,0.6316713099896409
0.0145,1.79474375,1.0,1941.7700835789067,0.1511730100747646,1.339139795298809,0.8372900492459584,0.2884322375,0.6332404312649293
0.015,1.794375,1.0,1991.2065968463294,0.15593425809045897,1.3384438457752335,0.8452863954943692,0.28841675,0.6347441430384886
0.0155,1.79399375,1.0,2038.1945597063893,0.1606687986112074,1.3377745313161564,0.8526932804318105,0.2884007375,0.6361873915629811
0.016,1.7936,1.0,2082.8344659802583,0.16537678329842492,1.337129695505986,0.8595652144555731,0.2883842,0.6375751543623763
0.0165,1.7931937500000001,1.0,2125.2002080824523,0.1700583604591118,1.3365076132062848,0.8659509365734169,0.2883671375,0.6389114357595965
0.017,1.792775,1.0,2165.3637400442576,0.1747136771958877,1.3359067045713102,0.8718940094627398,0.28834955,0.6401998910205438
0.0175,1.7923437500000001,1.0,2203.407763044128,0.17934288061137227,1.3353253897553194,0.8774333890229572,0.2883314375,0.6414441421729691
0.018000000000000002,1.7919,1.0,2239.424200315189,0.18394611773484768,1.3347620950677022,0.8826039672812037,0.2883128,0.642647766919269
0.0185,1.79144375,1.0,2273.4941201296147,0.1885235337023921,1.334215444170069,0.8874370945350124,0.2882936375,0.643813893106516
0.019,1.790975,1.0,2305.71661190715,0.19307527580924871,1.3336839576825288,0.8919609144595502,0.28827395,0.6449458430654476
0.0195,1.79049375,1.0,2336.155677427843,0.19760148642230496,1.3331665718739956,0.8962008524919882,0.2882537375,0.6460460312044953
0.02,1.79,1.0,2364.8808380964933,0.20210230790844846,1.332662223013383,0.9001798255248064,0.288233,0.6471168538896498
0.0205,1.78949375,1.0,2391.9666817899188,0.20657788263456683,1.3321698473696053,0.9039185231991919,0.2882117375,0.6481606903649653
0.021,1.788975,1.0,2417.4912133740827,0.21102835277516088,1.3316883930085137,0.9074356571764074,0.28818995000000003,0.6491798786461408
0.021500000000000002,1.78844375,1.0,2441.521551260448,0.21545385838455217,1.3312169530953673,0.9107482045591817,0.2881676375,0.6501764348922874
0.022,1.7879,1.0,2464.146637311407,0.21985454276029454,1.3307544460568759,0.9138715318041947,0.2881448,0.6511527309107437
0.0225,1.78734375,1.0,2485.4209098470137,0.22423054325734929,1.3303001529589347,0.9168196694523645,0.28812143749999997,0.6521103601891083
0.023,1.786775,1.0,2505.401424939545,0.22858199723067768,1.3298533548674387,0.9196053833852373,0.28809755,0.6530509065136976
0.0235,1.78619375,1.0,2524.1476412312027,0.23290904203524104,1.3294133328482827,0.922240306305347,0.28807313749999996,0.6539759443296764
0.024,1.7856,1.0,2541.7212162118017,0.23721181502600058,1.3289793679673618,0.9247350539762825,0.2880482,0.6548870390682244
0.0245,1.78499375,1.0,2558.1785959805034,0.24149045189712914,1.3285508090604994,0.9270993392613833,0.2880227375,0.6557856054390666
0.025,1.784375,1.0,2573.5808829221387,0.24574508998640743,1.328126977654583,0.9293420472162023,0.28799675,0.6566731075741989
0.025500000000000002,1.78374375,1.0,2587.9840798039413,0.24997586501292607,1.3277072579723272,0.9314713301652132,0.2879702375,0.6575508707661306
0.026000000000000002,1.7831000000000001,1.0,2601.4307375041035,0.2541829090222785,1.3272911724797207,0.9334946899371297,0.2879432,0.6584199247986279
0.0265,1.78244375,1.0,2613.9645306936923,0.25836635406005826,1.3268782436427518,0.935419019297039,0.2879156375,0.6592812941104267
0.027,1.781775,1.0,2625.630162118308,0.2625263321718587,1.3264679939274087,0.9372506595577702,0.28788755,0.6601359978986399
0.0275,1.7810937500000001,1.0,2636.4732719354474,0.2666629754032734,1.32605994579968,0.9389954520406182,0.2878589375,0.6609850502076204
0.028,1.7804,1.0,2646.5376533892036,0.27077641482903364,1.3256536466373958,0.9406587873755615,0.2878298,0.6618294082645604
0.0285,1.77969375,1.0,2655.8617303511123,0.2748667798578504,1.3252487002275772,0.9422456506075773,0.2878001375,0.6626699075263762
0.029,1.778975,1.0,2664.496886642295,0.2789342048502722,1.3248445970206786,0.9437606361036974,0.28776995,0.6635076141150286
0.029500000000000002,1.7782437500000001,1.0,2672.4731347108045,0.2829788161589958,1.3244410297987945,0.945208020829471,0.2877392375,0.6643431702267147
0.03,1.7775,1.0,2679.8209495452206,0.28700074013671784,1.3240376913440204,0.9465917673175215,0.287708,0.6651772148865989
0.0305,1.77674375,1.0,2686.571227618403,0.29100010313613506,1.3236342744384506,0.9479155507700602,0.2876762375,0.6660103839563063
0.031,1.775975,1.0,2692.755247923428,0.2949770315099442,1.3232304718641805,0.949182783505494,0.28764395,0.6668433101353929
0.0315,1.7751937500000001,1.0,2698.404635102429,0.298931651610842,1.3228259764033052,0.9503966370381782,0.2876111375,0.6676766229568004
0.032,1.7744,1.0,2703.551324667884,0.3028640897915252,1.3224204808379192,0.9515600620460448,0.2875778,0.6685109487762915
0.0325,1.77359375,1.0,2708.2172121057897,0.30677446458439106,1.3220137721064678,0.9526758153799082,0.2875439375,0.6693467173908286
0.033,1.772775,1.0,2712.444232503785,0.3106629110758845,1.321605456387168,0.9537464504849099,0.28750955,0.6701847271109739
0.0335,1.7719437500000002,1.0,2716.252516198543,0.3145295499771477,1.3211953408202588,0.9547743688811903,0.2874746375,0.6710253604443808
0.034,1.7711000000000001,1.0,2719.6613040251277,0.3183745012384208,1.3207832421127523,0.9557618141275386,0.2874392,0.6718689782513754
0.0345,1.7702437500000001,1.0,2722.6899795422373,0.3221978848099439,1.320368976971661,0.9567108832686579,0.2874032375,0.6727159393945517
0.035,1.7693750000000001,1.0,2725.358054522233,0.32599982064195704,1.3199523621039966,0.957623538113909,0.28736675,0.6735666007145187
0.035500000000000004,1.76849375,1.0,2727.6851551869,0.3297804286847005,1.3195332142167715,0.9585016155229336,0.2873297375,0.6744213170035039
0.036000000000000004,1.7676,1.0,2729.691009187072,0.33353982888841427,1.319111350016998,0.9593468367959203,0.2872922,0.6752804409768145
0.0365,1.76669375,1.0,2731.3954333282836,0.33727814120333854,1.3186865862116879,0.9601608162557038,0.2872541375,0.676144323242157
0.037,1.765775,1.0,2732.8183220401593,0.34099548557971343,1.3182587395078533,0.9609450690995407,0.28721555,0.6770133122668124
0.0375,1.76484375,1.0,2733.982015289604,0.34469197946930275,1.3178276050087667,0.9617010159497279,0.2871764375,0.6778877981326256
0.038,1.7639,1.0,2734.8958686375054,0.3483677397157307,1.3173930962547757,0.9624300035260561,0.28713679999999997,0.6787679287302508
0.0385,1.76294375,1.0,2735.5745135847455,0.3520228817153196,1.3169550792604565,0.9631332938940631,0.28709663750000003,0.6796539468462939
0.039,1.761975,1.0,2736.032625033997,0.355657520863258,1.3165134200004656,0.9638120751765257,0.28705595,0.6805460936212018
0.0395,1.7609937500000001,1.0,2736.278426195601,0.3592717719838171,1.3160680433184775,0.9644674719267622,0.2870147375,0.6814444897730518
0.04,1.76,1.0,2736.325173533091,0.36286574955826295,1.3156188286087123,0.9651005401253583,0.286973,0.6823493463892357
0.0405,1.7589954223147835,1.0,2736.2854939126532,0.36643956979166037,1.3151655085877465,0.9657122633727022,0.2869308077372209,0.6832611677188365
0.041,1.7579893882153075,1.0,2736.5946659090046,0.36999334415634666,1.3147083639166284,0.966303616843842,0.2868885543050429,0.6841793548498694
0.0415,1.7569833541158315,1.0,2737.294291733894,0.37352718412465896,1.314247675256406,0.9668755214108345,0.2868463008728649,0.6851033118493124
0.042,1.7559773200163555,1.0,2738.353593879162,0.3770412011689345,1.3137837232681275,0.9674288472339959,0.28680404744068694,0.6860324458290534
0.0425,1.7549712859168796,1.0,2739.7418459758537,0.38053550676151054,1.313316788612841,0.9679644170806921,0.28676179400850893,0.6869661670068123
0.043000000000000003,1.7539652518174036,1.0,2741.4294709701253,0.3840102119278366,1.3128471418150778,0.9684830085014411,0.286719540576331,0.687903908986405
0.043500000000000004,1.7529592177179276,1.0,2743.3910397139866,0.3874654263506402,1.3123750159335912,0.9689853544190609,0.28667728714415297,0.688845183101048
0.044,1.7519531836184516,1.0,2745.59725866371,0.3909012617732418,1.311900679111485,0.969472152230062,0.28663503371197496,0.6897894335771511
0.0445,1.7509471495189757,1.0,2748.0303388051534,0.394317825341779,1.311424295162067,0.9699440541894555,0.28659278027979695,0.6907363149962048
0.045,1.7499411154194997,1.0,2750.6724885170283,0.39771522420238914,1.310946027898645,0.9704016789740982,0.286550526847619,0.6916854838458392
0.0455,1.7489350813200237,1.0,2753.5059064328143,0.4010935655012097,1.3104660411345268,0.9708456137424343,0.286508273415441,0.6926365985403518
0.046,1.7479290472205478,1.0,2756.5127748985287,0.4044529563843782,1.30998449868302,0.9712764160488456,0.286466019983263,0.6935893194395305
0.0465,1.7469230131210718,1.0,2759.6766416794617,0.4077935029206052,1.3095015518133268,0.9716946145600219,0.28642376655108504,0.6945433336260924
0.047,1.7459169790215958,1.0,2762.987766455576,0.41111530674792157,1.3090172909374378,0.9721007068572122,0.286381513118907,0.6954984499416037
0.0475,1.7449109449221198,1.0,2766.4195328359715,0.41441848392544056,1.308531958729179,0.9724951789575433,0.286339259686729,0.6964541787077045
0.048,1.7439049108226439,1.0,2769.9636987992303,0.41770313621166144,1.3080456315489823,0.9728784797763599,0.286297006254551,0.6974103599604229
0.0485,1.742898876723168,1.0,2773.612007595245,0.4209693653650834,1.30755838575728,0.9732510367654152,0.28625475282237306,0.6983668346631895
0.049,1.741892842623692,1.0,2777.356186124947,0.42421727314420565,1.3070702977145037,0.9736132571385001,0.28621249939019505,0.6993234447114991
0.0495,1.740886808524216,1.0,2781.1879434502457,0.4274469613075275,1.3065814437810852,0.9739655290163266,0.2861702459580171,0.7002800329371981
0.05,1.73988077442474,1.0,2785.098969432084,0.43065853161354817,1.3060919003174571,0.9743082224966696,0.2861279925258391,0.7012364431123976
0.0505,1.738874740325264,1.0,2789.080933498971,0.43385208582076684,1.305601743684051,0.9746416906552766,0.2860857390936611,0.7021925199530217
0.051000000000000004,1.737868706225788,1.0,2793.125483543962,0.4370277256876827,1.305111050241299,0.9749662704826033,0.2860434856614831,0.7031481091219755
0.051500000000000004,1.736862672126312,1.0,2797.224244951256,0.4401855529727951,1.304619896349633,0.9752822837610229,0.2860012322293051,0.704103057231948
0.052000000000000005,1.7358566380268359,1.0,2801.3733298247043,0.44332566125588846,1.3041283179039183,0.9755900344346204,0.2859589787971271,0.7050572903346086
0.0525,1.73485060392736,1.0,2805.564616201438,0.44644815614193784,1.3036363886648652,0.9758898166640118,0.2859167253649491,0.7060106616025477
0.053,1.733844569827884,1.0,2809.7894799199007,0.4495531440943318,1.303144186680454,0.9761819120422043,0.2858744719327711,0.7069630168426213
0.0535,1.732838535728408,1.0,2814.045020980949,0.4526407202472315,1.3026517385265026,0.9764665855898594,0.28583221850059315,0.7079143021903236
0.054,1.731832501628932,1.0,2818.3283308367895,0.4557109797347985,1.302159070778828,0.9767440909328584,0.28578996506841514,0.7088644641137603
0.0545,1.730826467529456,1.0,2822.636492253957,0.45876401769119407,1.3016662100132477,0.9770146708892639,0.28574771163623713,0.7098134494140407
0.055,1.72982043342998,1.0,2826.9665791915204,0.46179992925057955,1.3011731828055795,0.9772785580212959,0.2857054582040591,0.7107612052256282
0.0555,1.728814399330504,1.0,2831.3156566956495,0.46481880954711635,1.3006800157316405,0.9775359751546853,0.2856632047718812,0.7117076790166468
0.056,1.727808365231028,1.0,2835.680780808469,0.4678207537149658,1.3001867353672485,0.9777871358675833,0.28562095133970317,0.7126528185891375
0.0565,1.7268023311315521,1.0,2840.0589984946796,0.47080585688828924,1.2996933682882206,0.9780322449510536,0.2855786979075252,0.7135965720792761
0.057,1.7257962970320762,1.0,2844.447347581465,0.47377421420124805,1.2991999410703747,0.9782714988430116,0.2855364444753472,0.7145388879575392
0.0575,1.7247902629326002,1.0,2848.8428567160254,0.47672592078800363,1.298706480289528,0.9785050860373496,0.2854941910431692,0.7154797150288322
0.058,1.7237842288331242,1.0,2853.242545337709,0.47966107178271733,1.2982130125214983,0.9787331874698522,0.2854519376109912,0.7164190024325658
0.0585,1.7227781947336482,1.0,2857.646361656825,0.4825797464680866,1.2977195382425137,0.9789559740905284,0.28540968417881324,0.7173567491985472
0.059000000000000004,1.7217721606341723,1.0,2862.050784730509,0.4854820515330376,1.2972260887217582,0.979173614122434,0.28536743074663523,0.7182928959922371
0.059500000000000004,1.7207661265346963,1.0,2866.4529465909377,0.4883680878304173,1.296732689340465,0.9793862683866444,0.2853251773144572,0.7192273950152268
0.06,1.7197600924352203,1.0,2870.8521233094066,0.4912379431065171,1.2962393463993735,0.9795940893690112,0.28528292388227927,0.7201602348369642
0.0605,1.7187540583357444,1.0,2875.2475887971905,0.4940917051076284,1.2957460661992235,0.9797972237044401,0.28524067045010126,0.7210914041061369
0.061,1.7177480242362684,1.0,2879.638614814244,0.4969294615800426,1.2952528550407543,0.9799958124466951,0.28519841701792326,0.7220208915506484
0.0615,1.7167419901367924,1.0,2884.0244709782,0.499751300270051,1.2947597192247053,0.9801899913237703,0.28515616358574525,0.7229486859775921
0.062,1.7157359560373164,1.0,2888.4044247743896,0.502557308923945,1.2942666650518164,0.9803798909797071,0.2851139101535673,0.7238747762732209
0.0625,1.7147299219378405,1.0,2892.777741566739,0.505347575288016,1.2937736988228266,0.9805656372036765,0.2850716567213893,0.7247991514029184
0.063,1.7137238878383645,1.0,2897.1436846100196,0.5081221871085554,1.293280826838476,0.9807473511470809,0.28502940328921134,0.7257218004111605
0.0635,1.7127178537388885,1.0,2901.501515062068,0.5108812321318544,1.2927880553995033,0.9809251495293941,0.28498714985703333,0.726642712421484
0.064,1.7117118196394125,1.0,2905.8504919977613,0.5136247981042047,1.2922953908066488,0.9810991448333969,0.2849448964248553,0.7275618766364428
0.0645,1.7107057855399366,1.0,2910.189872423337,0.5163529727718973,1.2918028393606515,0.9812694454904309,0.2849026429926773,0.7284792823375694
0.065,1.7096997514404606,1.0,2914.5189112918933,0.5190658438812239,1.2913104073622512,0.9814361560562506,0.28486038956049936,0.7293949188853293
0.0655,1.7086937173409846,1.0,2918.8368615192626,0.5217634991784756,1.2908181011121875,0.9815993773780142,0.28481813612832135,0.7303087757190736
0.066,1.7076876832415087,1.0,2923.1435067135553,0.524446011576609,1.2903259222321812,0.9817592055178805,0.28477588269614335,0.7312208510205149
0.0665,1.7066816491420327,1.0,2927.439502822864,0.5271134428073125,1.2898338646836351,0.9819157320828931,0.2847336292639654,0.732131157150983
0.067,1.7056756150425567,1.0,2931.722742825347,0.5297659352446522,1.2893419466792646,0.982069052026331,0.2846913758317874,0.7330396616449414
0.0675,1.7046695809430807,1.0,2935.9932020163014,0.5324035678091706,1.2888501681298858,0.982219251958291,0.2846491223996094,0.7339463659800276
0.068,1.7036635468436048,1.0,2940.2508558501518,0.5350264194214109,1.2883585289463149,0.9823664155400491,0.28460686896743137,0.7348512716323894
0.0685,1.7026575127441288,1.0,2944.4956799398656,0.537634569001916,1.287867029039368,0.9825106236051167,0.2845646155352534,0.7357543800766828
0.069,1.7016514786446526,1.0,2948.7276500569155,0.5402280954712286,1.2873756683198612,0.9826519542745232,0.2845223621030754,0.7366556927860751
0.0695,1.7006454445451766,1.0,2952.9467421310424,0.5428070777498918,1.2868844466986107,0.9827904830666365,0.2844801086708974,0.737555211232245
0.07,1.6996394104457007,1.0,2957.152932249974,0.5453715947584485,1.2863933640864327,0.9829262830018177,0.28443785523871945,0.7384529368853827
0.07050000000000001,1.6986333763462247,1.0,2961.346196658884,0.5479217254174417,1.2859024203941434,0.9830594247021849,0.28439560180654144,0.7393488712141917
0.07100000000000001,1.6976273422467487,1.0,2965.526511760521,0.5504575486474141,1.2854116155325586,0.9831899764867452,0.28435334837436343,0.7402430156858897
0.07150000000000001,1.6966213081472727,1.0,2969.6938541145264,0.5529791433689089,1.2849209494124947,0.9833180044621423,0.2843110949421854,0.7411353717662075
