Time [s],Phi [rad],STIM [ ],Fsee [N],Gamma [ ],Lcerel [ ],q [ ],Lmtc [m],fisomrel [ ]
0.0,1.8,1.0,18.07118914686555,0.00032738991621643175,1.379328108092998,0.005027789198806076,0.288653,0.5411676862582488
0.0005,1.79999375,1.0,18.482486331268277,0.0059347628265359114,1.37927959779507,0.013845104361455456,0.2886527375,0.54128503410845
0.001,1.799975,1.0,22.059678020393793,0.01151068280827366,1.3788934578708647,0.0372816495122836,0.28865195,0.5422185828528676
0.0015,1.79994375,1.0,32.02351391134592,0.017055326288491934,1.3779655174036478,0.0728793528973465,0.2886506375,0.544458123896023
0.002,1.7999,1.0,55.55507075962379,0.022568868702385687,1.3762413108892948,0.11740723717882845,0.2886488,0.5486048341208707
0.0025,1.79984375,1.0,100.36534624643312,0.028051484502490082,1.373780016481456,0.16749541380131291,0.28864643749999996,0.5544913880074059
0.003,1.7997750000000001,1.0,165.13789391517426,0.0335033471639033,1.3710588952886318,0.22029012606131262,0.28864354999999997,0.5609543884795287
0.0035,1.79969375,1.0,242.3814942280961,0.03892462918605887,1.3684407265433574,0.2736040510998809,0.2886401375,0.5671282877047288
0.004,1.7996,1.0,326.4508960172538,0.04431550210270672,1.3660245897249066,0.32581043845696134,0.2886362,0.5727869888925824
0.0045000000000000005,1.7994937500000001,1.0,414.4194308536075,0.04967613648739487,1.3638022627744748,0.3757811471727205,0.2886317375,0.5779589081638138
0.005,1.799375,1.0,504.6623800630318,0.05500670194496763,1.3617470957086408,0.4228163915792354,0.28862675,0.5827137715126386
0.0055,1.79924375,1.0,596.0805640250742,0.060307367149864115,1.3598357087395923,0.46655162659093213,0.2886212375,0.5871118071297046
0.006,1.7991000000000001,1.0,687.8087942544572,0.06557829981390137,1.358050429812604,0.5068649590755192,0.2886152,0.591198627905005
0.006500000000000001,1.79894375,1.0,779.1352173766622,0.07081966669266733,1.3563777167927682,0.5437984124123072,0.2886086375,0.5950093207065482
0.007,1.798775,1.0,869.4751415843712,0.0760316337043768,1.3548066961302667,0.5774971486307209,0.28860155,0.5985720930520555
0.0075,1.79859375,1.0,958.3380316182805,0.08121436558037344,1.3533285200815102,0.6081655458718276,0.2885939375,0.601909939084853
0.008,1.7984,1.0,1045.350167774949,0.08636802659840798,1.3519352413701136,0.6360363395230896,0.2885858,0.6050433223270406
0.0085,1.79819375,1.0,1130.1912842196007,0.09149277959506961,1.350620274950518,0.6613509128737465,0.2885771375,0.6079892308470125
0.009000000000000001,1.797975,1.0,1212.6177747763027,0.09658878656649589,1.349377637550516,0.6843462109983158,0.28856795,0.6107629667717485
0.0095,1.79774375,1.0,1292.4679497982318,0.10165620927797567,1.3482016281587246,0.7052471063003531,0.2885582375,0.6133789099094813
0.01,1.7975,1.0,1369.6060862970137,0.10669520777335642,1.3470873779579755,0.72426271449006,0.288548,0.615849336933219
0.0105,1.79724375,1.0,1443.9438229894824,0.11170594122167246,1.3460303646214646,0.7415844081369508,0.2885372375,0.6181855445151028
0.011,1.796975,1.0,1515.4379460876055,0.11668856816476118,1.345026312379987,0.7573855037594501,0.28852595000000003,0.6203980987419248
0.0115,1.79669375,1.0,1584.087678595075,0.12164324723184482,1.344071124819147,0.7718218401244908,0.2885141375,0.6224970059492569
0.012,1.7964,1.0,1649.8800182051075,0.1265701343519517,1.3431614432746046,0.7850331116179792,0.28850180000000003,0.6244905097247778
0.0125,1.79609375,1.0,1712.835257466944,0.13146938511955555,1.3422940013354552,0.7971438856533398,0.2884889375,0.6263865326841946
0.013000000000000001,1.7957750000000001,1.0,1773.0004921368352,0.13634115461773855,1.341465648612626,0.8082650340663091,0.28847555,0.6281926365355825
0.0135,1.79544375,1.0,1830.44311818277,0.14118559799740366,1.3406733765618082,0.8184951481353714,0.2884616375,0.6299159773659964
0.014,1.7951000000000001,1.0,1885.2184461812055,0.1460028682520319,1.339914629329409,0.8279219797107833,0.2884472,0.6315626427546251
0.0145,1.79474375,1.0,1937.3819742874857,0.1507931170027968,1.339187111675346,0.8366235825686869,0.2884322375,0.6331380844175267
0.015,1.794375,1.0,1987.0101660200003,0.15555649587087192,1.3384885283595354,0.8446693380623549,0.28841675,0.6346476918654211
0.0155,1.79399375,1.0,2034.1832596131037,0.16029315550415107,1.3378167460009176,0.8521210231770405,0.2884007375,0.6360964480910445
0.016,1.7936,1.0,2079.002348995643,0.16500324731308472,1.3371695886859927,0.8590336431846172,0.2883842,0.6374893764837963
0.0165,1.7931937500000001,1.0,2121.5406686339,0.16968691953635584,1.3365453270648497,0.8654563788239666,0.2883671375,0.6388304937207058
0.017,1.792775,1.0,2161.871696267484,0.17434431954869356,1.3359423559909567,0.8714331766245895,0.28834955,0.6401235122807569
0.0175,1.7923437500000001,1.0,2200.079824353117,0.17897559472482708,1.3353590703177811,0.8770033312491511,0.2883314375,0.6413721108277856
0.018000000000000002,1.7919,1.0,2236.251875420477,0.18358089160020133,1.3347939407632556,0.8822020520811805,0.2883128,0.6425797743246482
0.0185,1.79144375,1.0,2270.480842093755,0.18816035723267363,1.3342454650654396,0.8870609276467096,0.2882936375,0.6437499014132271
0.019,1.790975,1.0,2302.8463008746676,0.19271413658145503,1.3337123531221564,0.8916083885071745,0.28827395,0.6448854125436008
0.0195,1.79049375,1.0,2333.416891099632,0.19724237251979804,1.3331934885843573,0.8958700572295016,0.2882537375,0.6459888366230415
0.02,1.79,1.0,2362.266970658837,0.20174520792095527,1.3326877551029936,0.8998690257876668,0.288233,0.6470626836879163
0.0205,1.78949375,1.0,2389.4761374478535,0.20622278565817928,1.3321940363290166,0.903626139575647,0.2882117375,0.6481094458783037
0.021,1.788975,1.0,2415.1150364590444,0.21067524661211479,1.3317113487040348,0.9071602743656866,0.28818995000000003,0.6491313174137443
0.021500000000000002,1.78844375,1.0,2439.272658220484,0.21510273468230542,1.3312385716143968,0.9104884969089536,0.2881676375,0.6501307674580807
0.022,1.7879,1.0,2462.0110963116845,0.21950538905093342,1.3307748801864534,0.9136263459570768,0.2881448,0.6511096257577724
0.0225,1.78734375,1.0,2483.3876273110172,0.2238833476636188,1.3303195249376971,0.9165879511391974,0.28812143749999997,0.6520695518014481
0.023,1.786775,1.0,2503.462232647619,0.22823674846598166,1.3298717563856204,0.9193861670915155,0.28809755,0.6530121949587562
0.0235,1.78619375,1.0,2522.2973724987532,0.23256572940364198,1.329430825047716,0.9220327061486157,0.28807313749999996,0.6539391948609092
0.024,1.7856,1.0,2539.9551042562553,0.23687042792297666,1.328996006580088,0.9245382599596109,0.2880482,0.6548521289998553
0.0245,1.78499375,1.0,2556.489087371183,0.24115097960427573,1.3285666745720748,0.9269126149401731,0.2880227375,0.6557523608439041
0.025,1.784375,1.0,2571.9744745551775,0.24540752355230297,1.3281420174597856,0.9291646960070061,0.28799675,0.6566416338565746
0.025500000000000002,1.78374375,1.0,2586.453958103693,0.2496401923993175,1.327721543515553,0.9313027325129056,0.2879702375,0.6575210137620648
0.026000000000000002,1.7831000000000001,1.0,2599.9714852246234,0.2538491187775784,1.32730476101171,0.933334274950154,0.2879432,0.6583915606475366
0.0265,1.78244375,1.0,2612.572153566646,0.2580344353193447,1.3268911782205892,0.9352662601108908,0.2879156375,0.6592543290865911
0.027,1.781775,1.0,2624.3021121091856,0.26219627465687567,1.3264803034145238,0.9371050691990879,0.28788755,0.6601103682473229
0.0275,1.7810937500000001,1.0,2635.208467412884,0.26633476942243023,1.3260716448658465,0.9388565797321466,0.2878589375,0.6609607219849531
0.028,1.7804,1.0,2645.3325314599415,0.2704500485746237,1.3256647723740755,0.940526219522032,0.2878298,0.6618063011305535
0.0285,1.77969375,1.0,2654.723851655206,0.274542247339835,1.3252591866449386,0.9421189925788798,0.2878001375,0.6626481553031665
0.029,1.778975,1.0,2663.4158908013655,0.27861149359137277,1.3248545430067784,0.9436395434018443,0.28776995,0.6634870085709732
0.029500000000000002,1.7782437500000001,1.0,2671.441272635131,0.28265791447014715,1.324450509491996,0.9450921714110405,0.2877392375,0.6643235551351536
0.03,1.7775,1.0,2678.8331078564906,0.2866816371170682,1.3240467541329928,0.9464808596456002,0.287708,0.6651584857648971
0.0305,1.77674375,1.0,2685.624949310164,0.290682788673046,1.3236429449621696,0.9478093020601537,0.2876762375,0.6659924878068051
0.031,1.775975,1.0,2691.8507496103502,0.2946614962789906,1.3232387500119276,0.9490809281437066,0.28764395,0.666826245187266
0.0315,1.7751937500000001,1.0,2697.5426834274526,0.29861788642604353,1.3228338568610514,0.9502989273862222,0.2876111375,0.667660398163961
0.032,1.7744,1.0,2702.72765253326,0.30255208415305973,1.322428004123099,0.9514662727476577,0.2875778,0.6684954788175859
0.0325,1.77359375,1.0,2707.4420151043655,0.30646421644542776,1.3220208464931844,0.9525857231691722,0.2875439375,0.6693321888514444
0.033,1.772775,1.0,2711.7074735339747,0.3103544052946511,1.3216121747258733,0.953659864830611,0.28750955,0.670170947283464
0.0335,1.7719437500000002,1.0,2715.54591986743,0.3142227726922332,1.3212017795757318,0.9546911104898282,0.2874746375,0.6710121709100223
0.034,1.7711000000000001,1.0,2718.979417122807,0.31806944062967757,1.320789451797325,0.9556817131767987,0.2874392,0.6718562742843484
0.0345,1.7702437500000001,1.0,2722.0301815817047,0.32189453109848765,1.3203749821452198,0.9566337786523025,0.2874032375,0.6727036696921241
0.035,1.7693750000000001,1.0,2724.719206430854,0.32569816587193573,1.3199581737432549,0.9575492780319199,0.28736675,0.6735547418841873
0.035500000000000004,1.76849375,1.0,2727.0632499576386,0.32948046431655204,1.3195388693028929,0.9584300603551255,0.2873297375,0.674409792744352
0.036000000000000004,1.7676042564365027,1.0,2729.3008803342486,0.3332415495014327,1.3191168184051307,0.9592778494252459,0.2872923787703331,0.6752693118972795
0.0365,1.7667145720030195,1.0,2731.8083271622254,0.33698153863473457,1.318692238092198,0.9600943079712461,0.28725501202412684,0.6761328360324803
0.037,1.7658248875695364,1.0,2734.5715526163135,0.3407005489246145,1.318265345406325,0.9608809960327546,0.28721764527792054,0.6769999040605635
0.0375,1.7649352031360532,1.0,2737.5670294087604,0.3443986975792294,1.3178363573897416,0.9616393784545535,0.28718027853171424,0.677870057146749
0.038,1.76404551870257,1.0,2740.771209228586,0.3480761018067361,1.317405491084678,0.9623708317552747,0.28714291178550794,0.6787428387413725
0.0385,1.763155834269087,1.0,2744.1605131810743,0.35173287881529136,1.316972963533364,0.9630766504287743,0.28710554503930164,0.6796177946073874
0.039,1.7622661498356038,1.0,2747.7177063150452,0.35536914298848227,1.3165389339511981,0.96375804682045,0.2870681782930954,0.6804945895823948
0.0395,1.7613764654021207,1.0,2751.419591879522,0.3589850129612226,1.3161036152616346,0.9644161684850048,0.28703081154688903,0.6813727819468256
0.04,1.7604867809686375,1.0,2755.253419990092,0.36258060155789457,1.315667125413976,0.9650520873481062,0.2869934448006828,0.6822521235104501
0.0405,1.7595970965351544,1.0,2759.206808169096,0.36615602139086567,1.3152295787961308,0.9656668141224432,0.2869560780544765,0.6831323745281058
0.041,1.7587074121016713,1.0,2763.2673456615257,0.3697113850725037,1.3147910897960071,0.9662613027831612,0.2869187113082702,0.6840132965084254
0.0415,1.7578177276681881,1.0,2767.4225908998146,0.37324680521517606,1.3143517728015135,0.9668364543479797,0.2868813445620639,0.6848946522211277
0.042,1.7569280432347048,1.0,2771.6600692587326,0.37676239443125054,1.3139117422005582,0.9673931203680045,0.2868439778158576,0.6857762057034767
0.0425,1.7560383588012216,1.0,2775.9756818225087,0.3802582562641689,1.313471036573379,0.9679320984257616,0.28680661106965133,0.6866578738189135
0.043000000000000003,1.7551486743677385,1.0,2780.3488953667475,0.38373451486023347,1.3130298424178073,0.9684541586614223,0.286769244323445,0.6875392785582997
0.043500000000000004,1.7542589899342553,1.0,2784.7724838094277,0.38719127942866416,1.3125882259131998,0.9689600182272318,0.2867318775772387,0.6884202838661938
0.044,1.7533693055007722,1.0,2789.2414050919406,0.3906286566658753,1.3121462334024163,0.9694503546844647,0.2866945108310324,0.6893007939179983
0.0445,1.752479621067289,1.0,2793.750601656359,0.39404675326828137,1.3117039112283162,0.9699258104258116,0.2866571440848261,0.6901807134087052
0.045,1.751589936633806,1.0,2798.2950000826695,0.3974456759322966,1.311261305733759,0.9703869948479703,0.2866197773386199,0.6910599475539395
0.0455,1.7507002522003228,1.0,2802.8695107738895,0.4008255313543354,1.3108184632616047,0.9708344863696313,0.2865824105924136,0.6919384020908625
0.046,1.7498105677668396,1.0,2807.4690276888637,0.4041864262308121,1.3103754301547126,0.9712688343072531,0.28654504384620727,0.6928159832789449
0.0465,1.7489208833333565,1.0,2812.088428122716,0.40752846725814096,1.3099322527559425,0.9716905606199222,0.28650767710000097,0.693692597900595
0.047,1.7480311988998734,1.0,2816.722572534379,0.41085176113273647,1.309488977408154,0.9721001615336023,0.28647031035379467,0.6945681532616556
0.0475,1.7471415144663902,1.0,2821.3663044226496,0.41415641455101293,1.3090456504542065,0.9724981090541689,0.2864329436075884,0.6954425571917615
0.048,1.746251830032907,1.0,2826.0179884887643,0.41744252387809283,1.3086022866296627,0.972884848854169,0.28639557686138206,0.6963157802517331
0.0485,1.745362145599424,1.0,2830.672358166172,0.42071020255857317,1.3081589330333254,0.9732608096901973,0.2863582101151758,0.6971877295655691
0.049,1.7444724611659408,1.0,2835.3249702766034,0.4239595603723742,1.3077156292659116,0.9736263990146231,0.2863208433689695,0.6980583275047324
0.0495,1.7435827767324577,1.0,2839.974466412184,0.4271906968512236,1.3072723873096963,0.9739820020692824,0.2862834766227632,0.6989275510108418
0.05,1.7426930922989745,1.0,2844.619483782933,0.4304037115268488,1.3068292191469546,0.9743279862306269,0.2862461098765569,0.6997953771609379
0.0505,1.7418034078654914,1.0,2849.25865523461,0.4335987039309776,1.3063861367599616,0.9746647019993175,0.2862087431303506,0.7006617831674302
0.051000000000000004,1.7409137234320082,1.0,2853.8906092701427,0.43677577359533754,1.3059431521309923,0.9749924839264779,0.28617137638414436,0.7015267463780372
0.051500000000000004,1.740024038998525,1.0,2858.51397007364,0.4399350200516563,1.3055002772423216,0.9753116514811816,0.28613400963793806,0.7023902442757162
0.052000000000000005,1.739134354565042,1.0,2863.1273575383884,0.44307654283166137,1.305057524076225,0.9756225098633962,0.28609664289173176,0.7032522544785823
0.0525,1.7382446701315588,1.0,2867.7293872973323,0.44620044146708043,1.3046149046149769,0.9759253507662552,0.28605927614552545,0.7041127547398232
0.053,1.7373549856980757,1.0,2872.3186707571,0.44930681548964113,1.3041724308408527,0.9762204530912352,0.28602190939931915,0.7049717229475979
0.0535,1.7364653012645925,1.0,2876.8938151350862,0.4523957644310711,1.3037301147361273,0.9765080836195252,0.2859845426531129,0.7058291371249329
0.054,1.7355756168311094,1.0,2881.453423499644,0.45546738782309787,1.3032879682830758,0.9767884976426279,0.2859471759069066,0.7066849754296046
0.0545,1.7346859323976263,1.0,2885.997818146117,0.45852176302209474,1.3028459882301646,0.9770619364821796,0.2859098091607003,0.7075392455768336
0.055,1.7337962479641431,1.0,2890.525902875659,0.46155899801159017,1.3024041838670348,0.9773286349873014,0.285872442414494,0.7083919310577571
0.0555,1.73290656353066,1.0,2895.03547583687,0.4645792143993916,1.3019625742143925,0.9775888199838764,0.2858350756682877,0.7092429967277343
0.056,1.7320168790971768,1.0,2899.5264973799085,0.46758250306488797,1.3015211591671414,0.9778427048615794,0.28579770892208145,0.7100924444340031
0.0565,1.7311271946636937,1.0,2903.9989281435505,0.470568954887468,1.3010799386201852,0.9780904942394166,0.28576034217587515,0.7109402760218926
0.057,1.7302375102302106,1.0,2908.4527290552737,0.4735386607465207,1.3006389124684277,0.978332384397761,0.28572297542966885,0.7117864933348249
0.0575,1.7293478257967274,1.0,2912.887861330468,0.4764917115214347,1.3001980806067723,0.9785685636857292,0.28568560868346254,0.7126310982143171
0.058,1.7284581413632443,1.0,2917.3042864722197,0.479428198091599,1.2997574429301226,0.9787992129054962,0.28564824193725624,0.7134740924999818
0.0585,1.7275684569297611,1.0,2921.701966270586,0.4823482113364023,1.2993169993333826,0.9790245056750257,0.28561087519105,0.7143154780295276
0.059000000000000004,1.726678772496278,1.0,2926.080862802248,0.4852518421352336,1.2988767497114557,0.9792446087705916,0.2855735084448437,0.7151552566387622
0.059500000000000004,1.7257890880627949,1.0,2930.4409384301553,0.4881391813674816,1.2984366939592455,0.979459682450367,0.2855361416986374,0.7159934301615931
0.06,1.7248994036293117,1.0,2934.7821558030773,0.49101031991253513,1.297996831971656,0.9796698807602653,0.2854987749524311,0.7168300004300276
0.0605,1.7240097191958286,1.0,2939.1044778549835,0.49386534864978315,1.2975571636435905,0.9798753518231418,0.2854614082062248,0.7176649692741757
0.061,1.7231200347623454,1.0,2943.407867804758,0.49670435845861444,1.2971176888699527,0.9800762381123771,0.2854240414600185,0.7184983385222512
0.0615,1.7222303503288623,1.0,2947.692289155614,0.49952744021841783,1.2966784075456463,0.9802726767108023,0.2853866747138122,0.719330110000572
0.062,1.7213406658953792,1.0,2951.9577056948488,0.5023346848085821,1.296239319565575,0.9804647995558582,0.28534930796760594,0.7201602855335623
0.0625,1.720450981461896,1.0,2956.2040814929474,0.5051261831084962,1.2958004248246424,0.9806527336718155,0.28531194122139963,0.7209888669437534
0.063,1.7195612970284129,1.0,2960.431380903781,0.507902025997549,1.2953617232177523,0.9808366013898331,0.28527457447519333,0.7218158560517853
0.0635,1.7186716125949297,1.0,2964.6396163757795,0.5106622895382434,1.294923214222805,0.9810165194593535,0.28523720772898703,0.7226412554607443
0.064,1.7177819281614466,1.0,2968.8291952882096,0.5134070338764967,1.2944848938792983,0.9811925990955551,0.28519984098278073,0.7234650742248037
0.0645,1.7168922437279635,1.0,2973.000270489802,0.5161364067710551,1.2940467604568116,0.9813649538375175,0.2851624742365745,0.7242873171710922
0.065,1.7160025592944803,1.0,2977.153037371313,0.5188504893944096,1.2936088118615534,0.9815336884220422,0.2851251074903682,0.7251079897871395
0.0655,1.7151128748609972,1.0,2981.2876922241276,0.5215493629190513,1.2931710459997319,0.9816989038768619,0.2850877407441619,0.7259270975364257
0.066,1.7142231904275138,1.0,2985.4044322312157,0.524233108517471,1.2927334607775558,0.9818606976787361,0.2850503739979556,0.726744645858403
0.0665,1.7133335059940307,1.0,2989.5034554590034,0.5269018073621596,1.2922960541012332,0.9820191639037197,0.2850130072517493,0.7275606401685235
0.067,1.7124438215605475,1.0,2993.5849608489366,0.5295555406256081,1.2918588238769726,0.9821743933700456,0.284975640505543,0.7283750858582598
0.0675,1.7115541371270644,1.0,2997.649148208996,0.5321943894803074,1.2914217680109823,0.982326473774034,0.28493827375933667,0.7291879882951314
0.068,1.7106644526935813,1.0,3001.696218206281,0.5348184350987484,1.290984884409471,0.9824754898194139,0.2849009070131304,0.729999352822726
0.0685,1.709774768260098,1.0,3005.7263723579636,0.5374277586534221,1.2905481709786466,0.9826215233404225,0.2848635402669241,0.7308091847607243
0.069,1.708885083826615,1.0,3009.7398130241654,0.5400224413168193,1.2901116256247178,0.9827646534190182,0.2848261735207178,0.7316174894049221
0.0695,1.7079953993931318,1.0,3013.736743399698,0.542602564261431,1.2896752462538932,0.982904956496533,0.2847888067745115,0.7324242720272525
0.07,1.7071057149596487,1.0,3017.717367506508,0.5451682086597482,1.2892390307723807,0.9830425064800573,0.2847514400283052,0.7332295378758094
0.07050000000000001,1.7062160305261656,1.0,3021.681890185891,0.5477194556842617,1.2888029770863887,0.9831773748438483,0.28471407328209897,0.7340332921748688
0.07100000000000001,1.7053263460926824,1.0,3025.6305170907185,0.5502563865074626,1.288367083102126,0.9833096307260167,0.28467670653589267,0.7348355401249091
0.07150000000000001,1.7044366616591993,1.0,3029.563454678565,0.5527790823018416,1.2879313467258007,0.9834393410207507,0.28463933978968636,0.7356362869026363
