Time [s],Phi [rad],STIM [ ],Fsee [N],Gamma [ ],Lcerel [ ],q [ ],Lmtc [m],fisomrel [ ]
0.0,1.8,1.0,18.106985511230512,0.00038017816704903634,1.379324111241398,0.005037428191218576,0.288653,0.5411773553281999
0.0005,1.79999375,1.0,18.534456283322356,0.005987254977028838,1.3792738611956297,0.014000092188748887,0.2886527375,0.5412989101204027
0.001,1.799975,1.0,22.1508075250122,0.011562880519310557,1.3788842533968988,0.037563623605855676,0.28865195,0.5422408243873551
0.0015,1.79994375,1.0,32.202208225815646,0.01710723121164936,1.3779505426725371,0.07326080270227918,0.2886506375,0.5444942196860163
0.002,1.7999,1.0,55.90627501716941,0.022620482479939495,1.3762189699954093,0.11785607758607786,0.2886488,0.548658439462989
0.0025,1.79984375,1.0,100.92763570390156,0.02810280876758188,1.3737534001360643,0.16798185522040007,0.28864643749999996,0.5545548338224842
0.003,1.7997750000000001,1.0,165.85163838341822,0.033554383540439964,1.3710325478589525,0.22079075264181908,0.28864354999999997,0.5610167360628002
0.0035,1.79969375,1.0,243.1781378819261,0.038975379288867476,1.3684164467304425,0.27410112810362425,0.2886401375,0.5671853373039383
0.004,1.7996,1.0,327.2927890019147,0.044365967537561654,1.36600247632076,0.32629113791518916,0.2886362,0.5728386075480595
0.0045000000000000005,1.7994937500000001,1.0,415.2875182073464,0.049726318851115774,1.3637820231010331,0.3762370343162366,0.2886317375,0.5780058662899216
0.005,1.799375,1.0,505.54494981773837,0.055056602825074234,1.361728447110092,0.4232426281670894,0.28862675,0.5827567938498766
0.0055,1.79924375,1.0,596.96934384727,0.06035698812561995,1.3598184278026053,0.4669460621172056,0.2886212375,0.587151463691522
0.006,1.7991000000000001,1.0,688.6962293108035,0.06562764245500165,1.3580343659463803,0.5072273321035002,0.2886152,0.591235308677849
0.006500000000000001,1.79894375,1.0,780.0160525542291,0.07086873256551307,1.3563627353749115,0.5441296722013069,0.2886086375,0.5950433700131085
0.007,1.798775,1.0,870.3433306235728,0.07608042434744522,1.3547927174967413,0.5777990006657537,0.28860155,0.598603723250247
0.0075,1.79859375,1.0,959.1909551730549,0.08126288255639089,1.3533154390640298,0.6084400618040068,0.2885939375,0.6019394149202546
0.008,1.7984,1.0,1046.1841066192635,0.08641627143760086,1.3519229950926488,0.6362857699229814,0.2885858,0.6050708084343734
0.0085,1.79819375,1.0,1131.003381662484,0.09154075379006761,1.3506088055280558,0.661577514959159,0.2885771375,0.6080148771881057
0.009000000000000001,1.797975,1.0,1213.40454229119,0.09663649169425532,1.349366909979316,0.6845521684630435,0.28856795,0.6107868692968895
0.0095,1.79774375,1.0,1293.2320480225326,0.10170364686334893,1.3481915365012032,0.7054344253861675,0.2885582375,0.6134013198626637
0.01,1.7975,1.0,1370.3469123659772,0.10674237917393166,1.3470778730683126,0.72443327092755,0.288548,0.6158703763596183
0.0105,1.79724375,1.0,1444.6607528506313,0.11175284795359554,1.3460214061275804,0.7417399120824582,0.2885372375,0.6182053140991457
0.011,1.796975,1.0,1516.1400005796766,0.11673521213941777,1.345017749125875,0.7575274451054014,0.28852595000000003,0.6204169412886313
0.0115,1.79669375,1.0,1584.7650723054114,0.1216896294550926,1.3440630433092575,0.7719516611608535,0.2885141375,0.6225147392499106
0.012,1.7964,1.0,1650.5284575236126,0.12661625610665284,1.343153862948806,0.7851520706396335,0.28850180000000003,0.6245070993090308
0.0125,1.79609375,1.0,1713.4563368597574,0.1315152478288555,1.3422868754746116,0.797253075278091,0.2884889375,0.6264020882583794
0.013000000000000001,1.7957750000000001,1.0,1773.606969018348,0.13638676061745666,1.3414588093376307,0.8083653788863712,0.28847555,0.6282075303754068
0.0135,1.79544375,1.0,1831.0305325849608,0.14123094863782473,1.340666856990932,0.8185875457439663,0.2884616375,0.6299301420533162
0.014,1.7951000000000001,1.0,1885.7727893445867,0.14604796420319324,1.3399085668076358,0.828007264828747,0.2884472,0.6315757851109024
0.0145,1.79474375,1.0,1937.903330440393,0.15083795962679578,1.3391814871608625,0.8367024420943108,0.2884322375,0.6331502511713829
0.015,1.794375,1.0,1987.5047092098216,0.1556010865369059,1.3384832601318162,0.8447423612494205,0.28841675,0.6346590644468664
0.0155,1.79399375,1.0,2034.6677376876994,0.16033749682441492,1.337811645173719,0.8521887012473343,0.2884007375,0.6361074374522493
0.016,1.7936,1.0,2079.4693495051606,0.16504734028699097,1.3371647251419176,0.8590964936145044,0.2883842,0.6374998345662473
0.0165,1.7931937500000001,1.0,2121.979640946569,0.16973076487448052,1.3365408014627966,0.865514872288129,0.2883671375,0.6388402071134518
0.017,1.792775,1.0,2162.2810218663976,0.17438791853672986,1.3359381755627397,0.8714877069295474,0.28834955,0.6401324687486538
0.0175,1.7923437500000001,1.0,2200.4650954668236,0.17901894899409412,1.3353551698598747,0.8770542306922596,0.2883314375,0.6413804529599956
0.018000000000000002,1.7919,1.0,2236.616627731059,0.18362400264275167,1.3347902780125336,0.8822496245646213,0.2883128,0.6425875948606201
0.0185,1.79144375,1.0,2270.834225063758,0.18820322729693928,1.3342419433263653,0.8871054325052029,0.2882936375,0.6437574085504301
0.019,1.790975,1.0,2303.1830994349834,0.1927567662309545,1.3337090203221786,0.8916500938686093,0.28827395,0.6448925055982518
0.0195,1.79049375,1.0,2333.734785178024,0.19728476271909473,1.3331903635207834,0.8959091978408805,0.2882537375,0.6459954772222203
0.02,1.79,1.0,2362.5666187546326,0.2017873600356575,1.332684827442989,0.8999058068743916,0.288233,0.6470688953738158
0.0205,1.78949375,1.0,2389.7590131591364,0.2062647010748023,1.332191288315685,0.9036607448715792,0.2882117375,0.6481152677524409
0.021,1.788975,1.0,2415.385692948755,0.21071692732206201,1.3317087333845767,0.9071928641598027,0.28818995000000003,0.6491368501160708
0.021500000000000002,1.78844375,1.0,2439.5308514861927,0.21514418219301445,1.3312360891065897,0.9105192261787102,0.2881676375,0.6501360117135566
0.022,1.7879,1.0,2462.252147112135,0.21954660398388565,1.3307725732250788,0.913655363574616,0.2881448,0.6511144923535073
0.0225,1.78734375,1.0,2483.6102545455974,0.22392433099090162,1.330317403483399,0.9166153861212408,0.28812143749999997,0.6520740209055654
0.023,1.786775,1.0,2503.6686154378062,0.22827750151028842,1.3298697976249054,0.9194121307545589,0.28809755,0.6530163157363009
0.0235,1.78619375,1.0,2522.493202493254,0.232606253838272,1.3294289733929527,0.9220572940150566,0.28807313749999996,0.6539430851060755
0.024,1.7856,1.0,2540.141988588717,0.23691072383487882,1.3289942456615595,0.924561565513907,0.2880482,0.6548558237295325
0.0245,1.78499375,1.0,2556.6814423488613,0.24119105111726472,1.3285648679776458,0.9269347045820586,0.2880227375,0.6557561464631128
0.025,1.784375,1.0,2572.1637627289256,0.24544737094513586,1.328140245027951,0.9291856658706749,0.28799675,0.6566453430899117
0.025500000000000002,1.78374375,1.0,2586.6343042245007,0.24967981625528762,1.3277198595459923,0.9313226666561468,0.2879702375,0.6575245333518978
0.026000000000000002,1.7831000000000001,1.0,2600.1397149172108,0.2538885199845155,1.3273031942652869,0.9333532465486242,0.2879432,0.6583948310705992
0.0265,1.78244375,1.0,2612.7278261010288,0.25807361506961485,1.3268897319193513,0.9352843325245792,0.2879156375,0.6592573442783629
0.027,1.781775,1.0,2624.4475478412373,0.2622352344473812,1.326478955241703,0.9371222969254633,0.28788755,0.6601131753325451
0.0275,1.7810937500000001,1.0,2635.343706881714,0.2663735095301602,1.3260703938068976,0.9388730156889856,0.2878589375,0.6609633236052765
0.028,1.7804,1.0,2645.457251122957,0.2704885714521898,1.3256636208393167,0.9405419139604012,0.2878298,0.6618086927991894
0.0285,1.77969375,1.0,2654.8421771300495,0.2745805549025647,1.3252580960810352,0.9421339858047051,0.2878001375,0.6626504175183039
0.029,1.778975,1.0,2663.5298493602236,0.2786495869573041,1.3248534944059709,0.9436538751109704,0.28776995,0.6634891810338962
0.029500000000000002,1.7782437500000001,1.0,2671.5521596177846,0.282695794692427,1.324449490688042,0.945105879272003,0.2877392375,0.6643256632406574
0.03,1.7775,1.0,2678.941480878363,0.2867193051839525,1.3240457598011668,0.9464939794707111,0.287708,0.6651605406724634
0.0305,1.77674375,1.0,2685.7306234571456,0.29072024550789977,1.3236419766192633,0.9478218679596355,0.2876762375,0.6659944865114038
0.031,1.775975,1.0,2691.95279352072,0.2946987427402878,1.3232378160162495,0.9490929726648129,0.28764395,0.6668281705900678
0.0315,1.7751937500000001,1.0,2697.641553942414,0.2986549239571357,1.3228329528660434,0.9503104794054322,0.2876111375,0.6676622593870887
0.032,1.7744,1.0,2702.8240782439448,0.30258891184464776,1.3224271233273488,0.9514773581271272,0.2875778,0.6684972899963348
0.0325,1.77359375,1.0,2707.5351030635725,0.3065008364392947,1.3220199969263065,0.9525963686942734,0.2875439375,0.6693339336083597
0.033,1.772775,1.0,2711.798178420065,0.31039082048151,1.3216113475592355,0.9536700937202551,0.28750955,0.6701726438811628
0.0335,1.7719437500000002,1.0,2715.634843338233,0.3142589851532159,1.3212009692275677,0.9547009445488007,0.2874746375,0.6710138308905329
0.034,1.7711000000000001,1.0,2719.0668064215492,0.31810545163633447,1.320788655932734,0.9556911729180186,0.2874392,0.6718579025027742
0.0345,1.7702437500000001,1.0,2722.115928436332,0.32193034111278807,1.3203742016761655,0.9566428834071565,0.2874032375,0.6727052643506366
0.035,1.7693750000000001,1.0,2724.8042058363258,0.3257337747644989,1.3199574004592936,0.9575580447736767,0.28736675,0.6735563198065411
0.035500000000000004,1.76849375,1.0,2727.153755228665,0.3295158737733891,1.3195380462835493,0.9584385002911888,0.2873297375,0.6744114699531005
0.036000000000000004,1.7676,1.0,2729.179768075036,0.33327675370368215,1.3191159970605246,0.9592859824846457,0.2872922,0.6752709834823573
0.0365,1.76669375,1.0,2730.9117998253464,0.33701653571442614,1.3186909809264513,0.9601021042141785,0.2872541375,0.676135391186659
0.037,1.7657771303970171,1.0,2732.4634935269314,0.34073534859659294,1.318262925025645,0.9608884008122304,0.2872156394766747,0.6770048168179869
0.0375,1.7648594283368242,1.0,2734.2750138845786,0.34443330657719684,1.3178320245566824,0.9616463372203898,0.2871770959901466,0.6778788398156903
0.038,1.7639417262766315,1.0,2736.3789657203674,0.3481105238832523,1.31739847471814,0.9623772900919032,0.2871385525036185,0.678757041602673
0.0385,1.7630240242164386,1.0,2738.7541743839624,0.3517671147417737,1.3169624707085945,0.9630825540858549,0.28710000901709043,0.6796390056195898
0.039,1.7621063221562456,1.0,2741.3794701753823,0.3554031933797754,1.3165242077266224,0.963763347647511,0.28706146553056233,0.6805243173566136
0.0395,1.7611886200960527,1.0,2744.2336781463187,0.3590188740242718,1.3160838809708004,0.9644208183218118,0.28702292204403423,0.6814125643827706
0.04,1.7602709180358598,1.0,2747.2956087456782,0.36261427090227727,1.3156416856397053,0.9650560476422734,0.28698437855750614,0.682303336372849
0.0405,1.7593532159756669,1.0,2750.544049310548,0.3661894982408063,1.3151978169319136,0.9656700556333399,0.28694583507097804,0.6831962251318746
0.041,1.758435513915474,1.0,2753.957756401678,0.3697446702668732,1.3147524700460018,0.9662638049604646,0.2869072915844499,0.684090824617158
0.0415,1.7575178118552812,1.0,2757.5154489836955,0.3732799012074924,1.3143058401805467,0.9668382047588538,0.2868687480979218,0.6849867309579101
0.042,1.7566001097950883,1.0,2761.203467034559,0.37679529951171636,1.3138580532670117,0.9673941073999316,0.2868302046113937,0.6858836811206686
0.0425,1.7556824077348954,1.0,2765.0071459116443,0.3802909797008776,1.3134092440599474,0.9679323207025863,0.2867916611248656,0.6867813958474882
0.043000000000000003,1.7547647056747024,1.0,2768.90854384074,0.38376705815331036,1.31295957658704,0.9684536117329281,0.2867531176383375,0.687679538974683
0.043500000000000004,1.7538470036145095,1.0,2772.9001396745107,0.38722364192348074,1.312509120488795,0.9689586977424011,0.2867145741518094,0.6885779643218104
0.044,1.7529293015543166,1.0,2776.974394416459,0.3906608380658551,1.3120579454057169,0.9694482583365693,0.2866760306652813,0.6894765264960543
0.0445,1.7520115994941239,1.0,2781.123750056923,0.3940787536348998,1.3116061209783103,0.9699229378260263,0.2866374871787532,0.6903750808955698
0.045,1.751093897433931,1.0,2785.340628516573,0.397477495685081,1.3111537168470806,0.9703833474082838,0.2865989436922251,0.6912734837125216
0.0455,1.750176195373738,1.0,2789.6174306978255,0.400857171270865,1.3107008026525326,0.9708300671943262,0.286560400205697,0.6921715919358162
0.046,1.749258493313545,1.0,2793.946535643328,0.40421788744671805,1.3102474480351713,0.9712636480922896,0.2865218567191689,0.6930692633535194
0.0465,1.7483407912533522,1.0,2798.320299802232,0.4075597512671065,1.3097937226355014,0.9716846135596157,0.28648331323264076,0.6939663565549682
0.047,1.7474230891931593,1.0,2802.7310564040954,0.41088286978649646,1.309339696094028,0.9720934612340328,0.28644476974611266,0.6948627309325714
0.0475,1.7465053871329663,1.0,2807.1722032708467,0.41418734789475625,1.3088854282965552,0.9724906634786282,0.28640622625958456,0.6957582658994058
0.048,1.7455876850727736,1.0,2811.640976549835,0.417473286423467,1.3084309445680604,0.9728766668902596,0.28636768277305646,0.6966529095435396
0.0485,1.7446699830125807,1.0,2816.1284141991223,0.4207408001611887,1.307976325621916,0.9732519022963525,0.28632913928652837,0.6975465014554325
0.049,1.7437522809523878,1.0,2820.6319637567394,0.42398998958367695,1.3075215946042233,0.9736167743891794,0.28629059580000027,0.698438995064017
0.0495,1.7428345788921948,1.0,2825.14906458765,0.42722095516668745,1.3070667746610845,0.9739716689045318,0.28625205231347217,0.6993303440664502
0.05,1.741916876832002,1.0,2829.6771478319806,0.43043379738597576,1.306611888938601,0.9743169536821931,0.2862135088269441,0.7002205024282624
0.0505,1.740999174771809,1.0,2834.21363636542,0.43362861671729747,1.3061569605828744,0.9746529796578776,0.286174965340416,0.7011094243834702
0.051000000000000004,1.740081472711616,1.0,2838.7559447713033,0.43680551363640824,1.305702012740007,0.9749800817916463,0.2861364218538879,0.7019970644346576
0.051500000000000004,1.7391637706514234,1.0,2843.301479324741,0.4399645886190637,1.3052470685561002,0.9752985799373932,0.2860978783673598,0.7028833773530213
0.052000000000000005,1.7382460685912304,1.0,2847.847637988721,0.4431059421410194,1.3047921511772556,0.9756087796576322,0.2860593348808317,0.7037683181783834
0.0525,1.7373283665310375,1.0,2852.39181042156,0.44622967467803104,1.304337283749575,0.9759109729874735,0.2860207913943036,0.7046518422191667
0.053,1.7364106644708446,1.0,2856.9313779969343,0.44933588670585417,1.30388248941916,0.9762054391513743,0.2859822479077755,0.7055339050523408
0.0535,1.7354929624106517,1.0,2861.468345309219,0.45242465057816633,1.3034277502159746,0.9764924398686777,0.2859437044212474,0.7064145420882403
0.054,1.7345752603504587,1.0,2865.996073113963,0.4554961013871444,1.3029731249025462,0.9767722365589222,0.2859051609347193,0.7072936402639863
0.0545,1.733657558290266,1.0,2870.5134390020426,0.45855033606304607,1.3025186231576202,0.9770450727062688,0.2858666174481912,0.7081711818967403
0.055,1.732739856230073,1.0,2875.0199512573254,0.4615874473010311,1.3020642490445509,0.977311180764818,0.2858280739616631,0.7090471602332639
0.0555,1.7318221541698802,1.0,2879.515116830774,0.46460752779625925,1.3016100066266925,0.9775707834615677,0.28578953047513495,0.7099215685671127
0.056,1.7309044521096872,1.0,2883.998441352366,0.46761067024389036,1.3011558999673998,0.9778240942840779,0.28575098698860685,0.7107944002386017
0.0565,1.7299867500494943,1.0,2888.46942914304,0.4705969673390843,1.3007019331300274,0.9780713179398224,0.28571244350207875,0.7116656486347722
0.057,1.7290690479893014,1.0,2892.9275832271055,0.4735665117770007,1.3002481101779293,0.9783126507890828,0.28567390001555065,0.712535307189356
0.0575,1.7281513459291085,1.0,2897.3724053448937,0.47651939625279954,1.2997944351744601,0.9785482812531171,0.28563535652902255,0.7134033693827373
0.058,1.7272336438689155,1.0,2901.803395966234,0.47945571346164056,1.2993409121829744,0.9787783901992001,0.28559681304249446,0.7142698287419158
0.0585,1.7263159418087228,1.0,2906.2200543036,0.4823755560986835,1.2988875452668267,0.9790031513040214,0.28555826955596636,0.7151346788404676
0.059000000000000004,1.72539823974853,1.0,2910.6218783262552,0.48527901685908825,1.2984343384893713,0.9792227313968211,0.28551972606943826,0.7159979132985057
0.059500000000000004,1.724480537688337,1.0,2915.008364774362,0.4881661884380145,1.2979812959139627,0.9794372907835422,0.28548118258291016,0.7168595257826383
0.06,1.723562835628144,1.0,2919.379009173626,0.4910371635306221,1.2975284216039555,0.9796469835531906,0.28544263909638207,0.7177195100059275
0.0605,1.7226451335679511,1.0,2923.7333058502363,0.4938920348320709,1.2970757196227038,0.9798519578675133,0.2854040956098539,0.7185778597278465
0.061,1.7217274315077584,1.0,2928.070747946347,0.49673089503752066,1.2966231940335624,0.9800523562350206,0.2853655521233258,0.7194345687542334
0.0615,1.7208097294475655,1.0,2932.3915836940578,0.4995538090460731,1.2961708422678533,0.9802483132792204,0.2853270086367977,0.7202896434641275
0.062,1.7198920273873726,1.0,2936.695759835839,0.5023608794482605,1.2957186644082272,0.9804399616198896,0.2852884651502696,0.7211430852060404
0.0625,1.7189743253271796,1.0,2940.982621958484,0.5051522245129642,1.2952666658030039,0.9806274303617059,0.2852499216637415,0.7219948854131927
0.063,1.7180566232669867,1.0,2945.25227317083,0.5079279277787577,1.2948148451581547,0.9808108408954469,0.2852113781772134,0.7228450480687924
0.0635,1.7171389212067938,1.0,2949.5048172223446,0.5106880727842145,1.2943632011796506,0.9809903101752391,0.28517283469068533,0.7236935771405246
0.064,1.7162212191466009,1.0,2953.7403584980684,0.5134327430679081,1.293911732573463,0.981165950913573,0.28513429120415723,0.724540476580565
0.0645,1.715303517086408,1.0,2957.959002013433,0.516162022168412,1.2934604380455634,0.9813378717663663,0.28509574771762913,0.7253857503255932
0.065,1.7143858150262152,1.0,2962.1608534093816,0.5188759936242997,1.2930093163019227,0.9815061775086547,0.28505720423110104,0.7262294022968105
0.0655,1.7134681129660223,1.0,2966.346018947292,0.5215747409741448,1.2925583660485123,0.9816709692014427,0.28501866074457294,0.7270714363999513
0.066,1.7125504109058294,1.0,2970.514605504004,0.5242583477565208,1.2921075859913034,0.9818323443502297,0.28498011725804484,0.7279118565252976
0.0665,1.7116327088456365,1.0,2974.6667205670524,0.5269268975100012,1.2916569748362672,0.9819903970556739,0.28494157377151674,0.7287506665476946
0.067,1.7107150067854435,1.0,2978.8024722298046,0.5295804737731595,1.291206531289375,0.9821452181568417,0.28490303028498865,0.7295878703265632
0.0675,1.7097973047252506,1.0,2982.921969186429,0.5322191600845693,1.290756254056598,0.9822968953674573,0.28486448679846055,0.7304234717059153
0.068,1.708879602665058,1.0,2987.0253207273413,0.5348430399828039,1.2903061418439077,0.9824455134055384,0.28482594331193245,0.7312574745143653
0.0685,1.707961900604865,1.0,2991.112636734281,0.537452197006437,1.289856193357275,0.9825911541167865,0.28478739982540435,0.7320898825651467
0.069,1.707044198544672,1.0,2995.1840276756666,0.540046714694042,1.2894064073026712,0.9827338965920702,0.28474885633887626,0.7329206996561237
0.0695,1.7061264964844791,1.0,2999.239604601914,0.5426266765841925,1.288956782386068,0.9828738172793271,0.2847103128523481,0.7337499295698042
0.07,1.7052087944242862,1.0,3003.279479141036,0.545192166215462,1.2885073173134358,0.9830109900901797,0.28467176936582,0.7345775760733562
0.07050000000000001,1.7042910923640933,1.0,3007.3037634933503,0.547743267126424,1.2880580107907467,0.9831454865015574,0.2846332258792919,0.7354036429186164
0.07100000000000001,1.7033733903039003,1.0,3011.3125704277036,0.550280062855652,1.2876088615239714,0.9832773756525823,0.2845946823927638,0.736228133842108
0.07150000000000001,1.7024556882437074,1.0,3015.305853302287,0.5528025871202579,1.2871598696025572,0.9834067215685591,0.2845561389062357,0.7370510500313849
