Time [s],Phi [rad],STIM [ ],Fsee [N],Gamma [ ],Lcerel [ ],q [ ],Lmtc [m],fisomrel [ ]
0.0,1.8,1.0,19.639772131483046,0.0013208214384524553,1.3791565267517032,0.005446972506483059,0.288653,0.5415826792780134
0.0005,1.79999375,1.0,20.320485027446537,0.006922621983479786,1.3790813825800252,0.01697594742123144,0.2886527375,0.5417643666492875
0.001,1.799975,1.0,24.641625494512937,0.01249300085777581,1.3786396229317146,0.04276130443203621,0.28865195,0.5428317472771971
0.0015,1.79994375,1.0,36.366882308225776,0.0180321343088798,1.3776126181245345,0.08017922538887384,0.2886506375,0.5453083884985156
0.002,1.7999,1.0,63.28199093572195,0.023540197602206523,1.375765030472814,0.1259239082434088,0.2886488,0.5497469447505268
0.0025,1.79984375,1.0,111.99226533528689,0.029017365015621417,1.3732439779225658,0.17667911922092672,0.28864643749999996,0.555768281073148
0.003,1.7997750000000001,1.0,179.427047928604,0.034463809850658944,1.37054180453673,0.22971073505483944,0.28864354999999997,0.5621772037329842
0.0035,1.79969375,1.0,258.0792044934902,0.03987970443576056,1.3679694160314495,0.28293581199224715,0.2886401375,0.5682350410251086
0.004,1.7996,1.0,342.8919139279303,0.04526522013236788,1.3655977748587056,0.3348190696531054,0.2886362,0.5737827392167195
0.0045000000000000005,1.7994937500000001,1.0,431.2734005096056,0.05062052735112557,1.3634130206597448,0.38431389902464025,0.2886317375,0.5788615319354589
0.005,1.799375,1.0,521.728503757946,0.05594579552744991,1.3613893323310313,0.4307867986730779,0.28862675,0.5835387451445517
0.0055,1.79924375,1.0,613.2051601020513,0.0612411931659589,1.359504982131805,0.4739226405798568,0.2886212375,0.5878704331071765
0.006,1.7991000000000001,1.0,704.8628093388924,0.06650688777824935,1.3577435185687103,0.5136337944372286,0.2886152,0.5918991547260166
0.006500000000000001,1.79894375,1.0,796.0245452405068,0.07174304607224087,1.356091919125761,0.549984308409169,0.2886086375,0.5956586260629226
0.007,1.798775,1.0,886.1025289548598,0.07694983353033913,1.3545401813884468,0.5831328310373153,0.28860155,0.5991749355262987
0.0075,1.79859375,1.0,974.6526598628699,0.08212741520804713,1.3530793083148311,0.613290402453973,0.2885939375,0.6024713075252565
0.008,1.7984,1.0,1061.284644237666,0.08727595466198945,1.3517020842659937,0.6406927929356618,0.2885858,0.6055664665910583
0.0085,1.79819375,1.0,1145.6959613680172,0.09239561472102581,1.350402005853438,0.6655813264584161,0.2885771375,0.608477150171834
0.009000000000000001,1.797975,1.0,1227.6799519447884,0.0974865578362523,1.3491728654486528,0.6881910890198394,0.28856795,0.6112191008749268
0.0095,1.79774375,1.0,1307.0560647706316,0.10254894468724228,1.3480094710984305,0.7087445924507876,0.2885582375,0.6138055102863224
0.01,1.7975,1.0,1383.6998475372882,0.10758293532745172,1.3469069916902454,0.7274478809351825,0.288548,0.6162485303457399
0.0105,1.79724375,1.0,1457.5486460806105,0.11258868942838085,1.3458607412291497,0.74448902819097,0.2885372375,0.6185597821314515
0.011,1.796975,1.0,1528.5581090698097,0.11756636544815106,1.3448666066229464,0.7600382785255192,0.28852595000000003,0.6207494376159883
0.0115,1.79669375,1.0,1596.7008883976962,0.12251612034526287,1.3439209277534048,0.7742486747577783,0.2885141375,0.6228265161136395
0.012,1.7964,1.0,1661.9870067076206,0.12743811058735108,1.3430201560852224,0.7872570407358559,0.28850180000000003,0.6247996572680793
0.0125,1.79609375,1.0,1724.4638109609755,0.13233249295208738,1.3421607964872095,0.7991853225308527,0.2884889375,0.626677261949102
0.013000000000000001,1.7957750000000001,1.0,1784.1693639855862,0.1371994221785842,1.3413398835772614,0.8101422002698265,0.28847555,0.6284664664523649
0.0135,1.79544375,1.0,1841.14120974172,0.14203905136559883,1.3405548044940447,0.8202243807475124,0.2884616375,0.6301735495408896
0.014,1.7951000000000001,1.0,1895.4435574482036,0.14685153361188874,1.339802946376226,0.8295177703727995,0.2884472,0.6318047118432261
0.0145,1.79474375,1.0,1947.1527428578156,0.1516370212477262,1.3390818277805627,0.8380987443109084,0.2884322375,0.6333657974138801
0.015,1.794375,1.0,1996.3598350759075,0.15639566697976628,1.3383890396976896,0.8460352288427989,0.28841675,0.6348624292489651
0.0155,1.79399375,1.0,2043.1365832174422,0.16112762091247915,1.3377225788287084,0.8533877955546485,0.2884007375,0.6362992976699199
0.016,1.7936,1.0,2087.5527568994635,0.1658330318688281,1.337080627436715,0.860210454776171,0.2883842,0.6376806460678268
0.0165,1.7931937500000001,1.0,2129.691906425815,0.1705120486717765,1.336461367784807,0.866551375484974,0.2883671375,0.6390106759833447
0.017,1.792775,1.0,2169.6426888585233,0.17516481939778475,1.3358630585513203,0.8724535988119948,0.28834955,0.6402933861624759
0.0175,1.7923437500000001,1.0,2207.4996628380145,0.1797914924660326,1.3352840123321599,0.8779556372540203,0.2883314375,0.6415326245996431
0.018000000000000002,1.7919,1.0,2243.3458357425448,0.1843922145128159,1.334722758505298,0.8830920470571111,0.2883128,0.6427317440644258
0.0185,1.79144375,1.0,2277.2509198813796,0.18896712986495676,1.3341780435151445,0.8878938856827965,0.2882936375,0.6438936072461423
0.019,1.790975,1.0,2309.2917927923286,0.1935163828492773,1.3336486138061088,0.892389060903881,0.28827395,0.6450210539070858
0.0195,1.79049375,1.0,2339.5518980975958,0.1980401177925996,1.3331332158226001,0.8966026913503247,0.2882537375,0.646116902154633
0.02,1.79,1.0,2368.106688617775,0.2025384772074737,1.332630732556592,0.9005574528967406,0.288233,0.6471836599453602
0.0205,1.78949375,1.0,2395.0487283305265,0.20701160614569256,1.3321399309801598,0.9042737970178608,0.2882117375,0.6482240632923938
0.021,1.788975,1.0,2420.443853352501,0.21145964524105046,1.3316598839500677,0.907770285258892,0.28818995000000003,0.649240182966287
0.021500000000000002,1.78844375,1.0,2444.3535493397844,0.21588273395682642,1.331189743369383,0.9110637471472388,0.2881676375,0.6502339090781961
0.022,1.7879,1.0,2466.8427022935757,0.2202810117562994,1.330728661141173,0.9141694510547409,0.2881448,0.6512071195783391
0.0225,1.78734375,1.0,2487.9793141078867,0.2246546181027485,1.330275789168505,0.9171012706135642,0.28812143749999997,0.6521616807688814
0.023,1.786775,1.0,2507.828319239986,0.22900369123863049,1.3298303354437504,0.9198718415329427,0.28809755,0.6530993297865533
0.0235,1.78619375,1.0,2526.4562468328813,0.23332837002854312,1.3293915165793802,0.9224926819316469,0.28807313749999996,0.654021775527857
0.024,1.7856,1.0,2543.9283747988293,0.23762879289229807,1.3289585823605223,0.9249743105518222,0.2880482,0.6549306476127406
0.0245,1.78499375,1.0,2560.2926842060156,0.24190509408322047,1.3285309638661165,0.9273263717284912,0.2880227375,0.6558271868022975
0.025,1.784375,1.0,2575.598759749772,0.2461574078546354,1.3281080921751016,0.9295576925139031,0.28799675,0.6567126270702011
0.025500000000000002,1.78374375,1.0,2589.8976550819757,0.250385868459868,1.327689398366417,0.9316763630821551,0.2879702375,0.6575881957852538
0.026000000000000002,1.7831000000000001,1.0,2603.2417653164966,0.25459061015224327,1.3272743135190024,0.9336898082433815,0.2879432,0.6584551138732964
0.0265,1.78244375,1.0,2615.6786273569887,0.258771765616671,1.3268623251602922,0.9356048593747726,0.2879156375,0.6593144782870134
0.027,1.781775,1.0,2627.2555295069164,0.26292946821921936,1.326452932887899,0.937427804367063,0.28788755,0.6601673552579368
0.0275,1.7810937500000001,1.0,2638.026815119582,0.2670638524018762,1.3260455798262585,0.9391644280176763,0.2878589375,0.6610149230732107
0.028,1.7804,1.0,2648.0274084487933,0.27117504683226157,1.3256398966561904,0.9408200915450003,0.2878298,0.6618579646229134
0.0285,1.77969375,1.0,2657.2929045154738,0.2752631801779959,1.3252355140585146,0.942399745766355,0.2878001375,0.6626972589129265
0.029,1.778975,1.0,2665.859510721312,0.2793283811066994,1.32483206271405,0.9439079678463452,0.28776995,0.6635335810999219
0.029500000000000002,1.7782437500000001,1.0,2673.7639914865,0.2833707782859922,1.324429173303616,0.9453489943140356,0.2877392375,0.6643677025176413
0.03,1.7775,1.0,2681.0436159117216,0.28739050038349473,1.3240264765080323,0.9467267507684058,0.287708,0.6652003906944821
0.0305,1.77674375,1.0,2687.730835938689,0.29138767413769173,1.32362365130432,0.9480448842704544,0.2876762375,0.6660323096825889
0.031,1.775975,1.0,2693.8593437019103,0.29536242771178456,1.3232203688450366,0.9493067808464246,0.28764395,0.6668641363637708
0.0315,1.7751937500000001,1.0,2699.4641800957334,0.2993148887260962,1.3228162911581358,0.9505155865904794,0.2876111375,0.6676965630194697
0.032,1.7744,1.0,2704.56978640697,0.3032451802479024,1.3224111799611178,0.9516742395918354,0.2875778,0.6685300734568869
0.0325,1.77359375,1.0,2709.2008489483014,0.30715342534447904,1.322004796971482,0.9527854762247772,0.2875439375,0.669365149003044
0.033,1.772775,1.0,2713.3822753236486,0.3110397470831018,1.3215969039067288,0.9538518474401485,0.28750955,0.6702022684872648
0.0335,1.7719437500000002,1.0,2717.1391719530675,0.31490426853104647,1.321187262484358,0.9548757335552229,0.2874746375,0.6710419082200388
0.034,1.7711000000000001,1.0,2720.496822856047,0.31874711275558887,1.320775634421869,0.955859357696304,0.2874392,0.6718845419682635
0.0345,1.7702437500000001,1.0,2723.473056152011,0.3225683981534366,1.3203618507174626,0.9568048044143301,0.2874032375,0.6727304993778132
0.035,1.7693750000000001,1.0,2726.094128447807,0.3263682502387592,1.3199456668399847,0.9577140176587814,0.28736675,0.6735802623415736
0.035500000000000004,1.76849375,1.0,2728.386455073074,0.3301467932276836,1.3195268379553522,0.9585888173839304,0.2873297375,0.6744343106704531
0.036000000000000004,1.7676,1.0,2730.3656712916377,0.3339041439343602,1.3191052181868284,0.9594309176942101,0.2872922,0.675292920044441
0.0365,1.76669375,1.0,2732.047491724734,0.3376404191729393,1.318680661657677,0.9602419262792128,0.2872541375,0.6761563644305653
0.037,1.765775,1.0,2733.4477013550436,0.3413557357575714,1.3182530224911613,0.9610233522155481,0.28721555,0.6770249160562514
0.0375,1.76484375,1.0,2734.5821470029264,0.34505021050240686,1.3178221548105447,0.9617766131130905,0.2871764375,0.6778988453813208
0.038,1.7639,1.0,2735.4667292742392,0.3487239602215961,1.3173879127390908,0.9625030416673442,0.28713679999999997,0.678778421068633
0.0385,1.76294375,1.0,2736.117394980258,0.3523771017292893,1.3169501504000634,0.9632038916732458,0.28709663750000003,0.6796639099533712
0.039,1.761975,1.0,2736.550130028948,0.3560097518396371,1.3165087219167253,0.9638803435500499,0.28705595,0.6805555770109728
0.0395,1.7609937500000001,1.0,2736.7787772819274,0.359622023692116,1.3160635011605557,0.9645335105180837,0.2870147375,0.6814536455170006
0.04,1.76,1.0,2736.81519187122,0.36321403137021696,1.3156143802846705,0.9651644439382737,0.286973,0.6823583002472048
0.0405,1.7589937500000001,1.0,2736.675085250097,0.3667858973710525,1.3151612166301994,0.9657741341457334,0.2869307375,0.6832697944265707
0.041,1.757975,1.0,2736.3674951932717,0.3703377316749035,1.3147039282733273,0.9663635190763676,0.28688795,0.6841882574277312
0.0415,1.75694375,1.0,2735.901473390909,0.37386964426205105,1.314242433290238,0.9669334847784298,0.2868446375,0.6851138173463976
0.042,1.7559,1.0,2735.2860827609716,0.3773817451127759,1.3137766497571164,0.9674848688140135,0.28680079999999997,0.6860466009795916
0.0425,1.75484375,1.0,2734.530394911101,0.38087414420735904,1.3133064957501461,0.968018463403969,0.2867564375,0.6869867338034557
0.043000000000000003,1.753775,1.0,2733.6434877484116,0.38434695152608134,1.312831889345512,0.9685350183380176,0.28671155,0.6879343399506292
0.043500000000000004,1.75269375,1.0,2732.634443239075,0.3878002770492238,1.312352748619398,0.9690352436697867,0.28666613750000003,0.688889542187204
0.044,1.7516,1.0,2731.512345315791,0.3912342307570672,1.3118689916479886,0.9695198122146593,0.2866202,0.6898524618892437
0.0445,1.75049375,1.0,2730.2862779348816,0.3946489226298926,1.311380536507468,0.9699893618666808,0.2865737375,0.690823219018882
0.045,1.7493750000000001,1.0,2728.9623197172627,0.3980444556603582,1.3108873285779663,0.9704444988313699,0.28652675,0.6918018779644631
0.0455,1.74824375,1.0,2727.5431579666383,0.4014209282376746,1.310389344073634,0.970885800190422,0.2864792375,0.6927884409615409
0.046,1.7471,1.0,2726.0468822654425,0.4047784759707366,1.3098864191406208,0.9713138087181111,0.2864312,0.6937831863271796
0.0465,1.7459437500000001,1.0,2724.4775997637944,0.4081172006967697,1.309378516992385,0.9717290448024497,0.28638263750000004,0.6947861391058434
0.047,1.744775,1.0,2722.8394160340595,0.41143720425299984,1.3088656008423851,0.9721320031750881,0.28633355,0.6957973233937259
0.0475,1.74359375,1.0,2721.13643454129,0.4147385884766526,1.3083476339040794,0.9725231544141355,0.28628393750000003,0.6968167623270276
0.048,1.7424,1.0,2719.3727561429564,0.41802145520495393,1.307824579390926,0.9729029463453898,0.2862338,0.6978444780701515
0.0485,1.74119375,1.0,2717.5524786198926,0.4212859062751294,1.3072964005163834,0.9732718053497271,0.2861831375,0.698880491803809
0.049,1.739975,1.0,2715.6796962357,0.4245320435244048,1.3067630604939098,0.97363013758374,0.28613195,0.6999248237130417
0.0495,1.73874375,1.0,2713.7584993275073,0.427759968790006,1.3062245225369635,0.9739783301201221,0.2860802375,0.7009774929751553
0.05,1.7375,1.0,2711.7929739261335,0.4309697839091585,1.3056807498590028,0.9743167520137598,0.286028,0.7020385177475693
0.0505,1.73624375,1.0,2709.7872014061672,0.43416159071908833,1.3051317056734861,0.9746457552989908,0.2859752375,0.7031079151555772
0.051000000000000004,1.734975,1.0,2707.7452581664334,0.43733549105702096,1.3045773531938716,0.9749656759230532,0.28592195,0.7041857012800243
0.051500000000000004,1.73369375,1.0,2705.671215340042,0.44049158676018235,1.3040176556336176,0.9752768346203369,0.2858681375,0.7052718911448952
0.052000000000000005,1.7324,1.0,2703.5691385345426,0.44362997966579815,1.3034525762061826,0.9755795377316786,0.2858138,0.7063664987048182
0.0525,1.73109375,1.0,2701.443087602628,0.4467507716110941,1.3028820781250245,0.9758740779726067,0.28575893750000003,0.7074695368324826
0.053,1.729775,1.0,2699.2920944464977,0.4498540405396571,1.3023061705063346,0.9761607355522197,0.28570355000000003,0.7085809288067442
0.0535,1.72844375,1.0,2697.1234199493206,0.45293991028386066,1.3017247872381388,0.9764397785111907,0.2856476375,0.7097007422388389
0.054,1.7271,1.0,2694.940194055683,0.45600848270548255,1.3011378998930663,0.97671146332751,0.2855912,0.7108289708163061
0.0545,1.7257437500000001,1.0,2692.743849795748,0.4590598510111698,1.3005454955282918,0.976976035552282,0.2855342375,0.7119655775435381
0.055,1.724375,1.0,2690.5358180097533,0.46209410840756926,1.2999475612009903,0.9772337303033324,0.28547675,0.7131105246478896
0.0555,1.72299375,1.0,2688.317527313588,0.46511134810132787,1.2993440839683363,0.9774847727929006,0.2854187375,0.7142637735751199
0.056,1.7216,1.0,2686.0904040670025,0.4681116632990925,1.2987350508875048,0.9777293788244222,0.2853602,0.715425284984821
0.0565,1.72019375,1.0,2683.8558723465803,0.47109514720751,1.2981204490156708,0.9779677552604554,0.28530113749999997,0.7165950187458381
0.057,1.718775,1.0,2681.6153539219326,0.4740618930332274,1.2975002654100087,0.9782001004636451,0.28524155,0.7177729339316785
0.0575,1.71734375,1.0,2679.3702682351814,0.4770119939828915,1.2968744871276936,0.9784266047124844,0.2851814375,0.7189589888159085
0.058,1.7159,1.0,2677.1220323851085,0.4799455432631493,1.2962431012259001,0.9786474505935063,0.2851208,0.7201531408675417
0.0585,1.71444375,1.0,2674.8720611144886,0.48286263408064767,1.295606094761803,0.9788628133714139,0.2850596375,0.7213553467464155
0.059000000000000004,1.7129750000000001,1.0,2672.6217668008176,0.4857633596420335,1.2949634547925775,0.9790728613385622,0.28499795,0.7225655622985558
0.059500000000000004,1.71149375,1.0,2670.372559451532,0.48864781315395367,1.294315168375398,0.9792777561450865,0.2849357375,0.7237837425515343
0.06,1.71,1.0,2668.125846702134,0.4915160878230551,1.2936612225674393,0.9794776531109008,0.284873,0.7250098417098114
0.0605,1.7084937500000001,1.0,2665.8830338187695,0.49436827685598483,1.2930016044258763,0.9796727015206901,0.2848097375,0.7262438131500711
0.061,1.7069750000000001,1.0,2663.640516068773,0.4972044346287829,1.292336347084657,0.9798630442836236,0.28474595,0.7274855235114763
0.0615,1.7054437500000001,1.0,2661.4050261529724,0.5000246950734835,1.2916653885756038,0.9800488200951436,0.2846816375,0.7287350162852106
0.062,1.7039,1.0,2659.178108505227,0.5028291527642784,1.2909887146054058,0.9802301617792194,0.2846168,0.7299922448096101
0.0625,1.70234375,1.0,2656.959976663871,0.5056178920399401,1.2903063231184342,0.980407197010895,0.2845514375,0.7312571388949467
0.063,1.7007750000000001,1.0,2654.7508438291015,0.5083909972392411,1.2896182120590607,0.9805800487038249,0.28448555,0.7325296276904112
0.0635,1.69919375,1.0,2652.550922866195,0.5111485527009537,1.2889243793716567,0.9807488352214698,0.28441913750000003,0.7338096396833641
0.064,1.6976,1.0,2650.3604263086204,0.5138906427638504,1.2882248230005937,0.9809136705774142,0.2843522,0.7350971026985855
0.0645,1.69599375,1.0,2648.179566362319,0.5166173517667036,1.287519540890243,0.9810746646254392,0.2842847375,0.7363919438975254
0.065,1.694375,1.0,2646.0085549084843,0.5193287640482858,1.2868085309849762,0.9812319232399465,0.28421675,0.7376940897775509
0.0655,1.69274375,1.0,2643.8476035078656,0.5220249639473693,1.2860917912291645,0.9813855484872864,0.2841482375,0.7390034661711995
0.066,1.6911,1.0,2641.6969234042913,0.5247060358027267,1.2853693195671798,0.981535638788514,0.2840792,0.7403199982454236
0.0665,1.6894437500000001,1.0,2639.556725528864,0.5273720639531302,1.284641113943393,0.9816822890740559,0.2840096375,0.7416436105008428
0.067,1.687775,1.0,2637.427220503477,0.5300231327373524,1.2839071723021762,0.9818255909307468,0.28393955,0.7429742267709899
0.0675,1.68609375,1.0,2635.3086186453943,0.5326593264941657,1.2831674925879004,0.9819656327416624,0.2838689375,0.7443117702215605
0.068,1.6844000000000001,1.0,2633.201129971211,0.5352807295623425,1.2824220727449371,0.9821024998191481,0.2837978,0.7456561633496602
0.0685,1.68269375,1.0,2631.1049642011326,0.5378874262806552,1.281670910717658,0.98223627453142,0.2837261375,0.747007327983052
0.069,1.680975,1.0,2629.0203307634533,0.5404795009878763,1.2809140044504346,0.9823670364230906,0.28365395,0.7483651852794044
0.0695,1.67924375,1.0,2626.9474387988234,0.5430570380227784,1.2801513518876377,0.9824948623299519,0.28358123749999997,0.7497296557255388
0.07,1.6775,1.0,2624.88649716514,0.5456201217241335,1.2793829509736396,0.9826198264883226,0.283508,0.7511006591366738
0.07050000000000001,1.67574375,1.0,2622.8374753530334,0.5481687911220298,1.2786088018697868,0.9827419979491298,0.2834342375,0.7524781107164602
0.07100000000000001,1.673975,1.0,2620.8015222616136,0.550703174655536,1.2778288937978994,0.9828614484380976,0.28335995,0.7538619444229449
0.07150000000000001,1.67219375,1.0,2618.778576296435,0.5532233609667379,1.2770432271969199,0.9829782453777596,0.2832851375,0.7552520735469255
0.07200000000000001,1.6704,1.0,2616.7683990846617,0.5557294253876411,1.2762518041483613,0.9830924532466426,0.2832098,0.7566484078596156
0.0725,1.66859375,1.0,2614.7707526811632,0.5582214432502517,1.2754546267337368,0.9832041344178843,0.2831339375,0.7580508565401076
0.073,1.6667750000000001,1.0,2612.785399563619,0.5606994898865755,1.2746516970345596,0.9833133492403789,0.28305755,0.7594593281761368
0.0735,1.66494375,1.0,2610.812102627465,0.5631636406286182,1.273843017132343,0.9834201561162755,0.2829806375,0.7608737307648449
0.074,1.6631,1.0,2608.8506251809295,0.5656139708083859,1.2730285891086,0.9835246115750141,0.2829032,0.7622939717135437
0.0745,1.6612437500000001,1.0,2606.9007309402996,0.5680505557578842,1.2722084150448438,0.9836267703440749,0.2828252375,0.7637199578404784
0.075,1.659375,1.0,2604.9621840252835,0.5704734708091189,1.271382497022588,0.9837266854166073,0.28274675,0.76515159537559
0.0755,1.65749375,1.0,2603.0347489544324,0.5728827912940961,1.2705508371233452,0.9838244081160956,0.2826677375,0.7665887899612792
