Time [s],Phi [rad],STIM [ ],Fsee [N],Gamma [ ],Lcerel [ ],q [ ],Lmtc [m],fisomrel [ ]
0.0,1.8,1.0,17.967733788612552,1.756001728600906e-05,1.3793396817314314,0.005000081817514934,0.288653,0.5411396870659959
0.0005,1.79999375,1.0,18.27956126838368,0.005626670828273036,1.3793020748741083,0.012961514944427786,0.2886527375,0.5412306632531771
0.001,1.799975,1.0,21.626785220171882,0.011204318962495208,1.3789374438866744,0.03564798016679248,0.28865195,0.5421122883311018
0.0015,1.79994375,1.0,31.089507860007682,0.016750680901560958,1.378044476918105,0.07065563776022997,0.2886506375,0.5442677725501159
0.002,1.7999,1.0,53.626286523265414,0.02226593213541506,1.3763652843496375,0.1147817081351327,0.2886488,0.5483073110217365
0.0025,1.79984375,1.0,97.19289086896298,0.027750247169955073,1.373931604308416,0.16464416158530817,0.28864643749999996,0.5541299595004281
0.003,1.7997750000000001,1.0,161.05465259116298,0.033203799534679224,1.3712107327431342,0.21735191669889944,0.28864354999999997,0.5605949996693411
0.0035,1.79969375,1.0,237.7924868547953,0.03862676178233189,1.3685813723467404,0.2706839679119201,0.2886401375,0.5667977422161784
0.004,1.7996,1.0,321.58299851943354,0.04401930549967203,1.366153014260289,0.322984627575123,0.2886362,0.5724871497069665
0.0045000000000000005,1.7994937500000001,1.0,409.3881907085974,0.049381601312661665,1.3639199871905625,0.37309984287467535,0.2886317375,0.5776857236072093
0.005,1.799375,1.0,499.53644321704417,0.05471381887756809,1.3618557300629792,0.42030858826224454,0.28862675,0.5824631078462639
0.0055,1.79924375,1.0,590.9145150043566,0.06001612692815145,1.3599364105939398,0.4642302938007668,0.2886212375,0.5868806770687207
0.006,1.7991000000000001,1.0,682.6424080554542,0.0652886932195409,1.3581441554120708,0.504731973920464,0.2886152,0.5909845789036177
0.006500000000000001,1.79894375,1.0,774.0070117856355,0.07053168458152592,1.3564651070024758,0.5418482942513148,0.2886086375,0.5948106743932191
0.007,1.798775,1.0,864.4126302966682,0.07574526691318505,1.3548883465367896,0.5757200743741365,0.28860155,0.5983873134323455
0.0075,1.79859375,1.0,953.3694571196705,0.08092960516363223,1.353404837527479,0.6065492778008627,0.2885939375,0.6017379490184189
0.008,1.7984,1.0,1040.4821998447403,0.08608486337564368,1.3520068244992307,0.6345678237649914,0.2885858,0.6048826387307646
0.0085,1.79819375,1.0,1125.4401667737327,0.09121120467461621,1.3506874587114919,0.6600168859145956,0.2885771375,0.6078389869339149
0.009000000000000001,1.797975,1.0,1207.9959192696572,0.09630879104601485,1.3494407269211282,0.6831338875292848,0.28856795,0.610622380002658
0.0095,1.79774375,1.0,1287.986119026069,0.10137778423462127,1.348260881101897,0.7041444774257756,0.2885582375,0.6132473172644464
0.01,1.7975,1.0,1365.27990365077,0.10641834465288397,1.347142934825314,0.7232586658921244,0.288548,0.6157263482170527
0.0105,1.79724375,1.0,1439.771555999437,0.11143063115687947,1.3460825439378026,0.7406689229576006,0.2885372375,0.6180703851452135
0.011,1.796975,1.0,1511.416649010974,0.1164148024612693,1.3450754000988365,0.7565495354299138,0.28852595000000003,0.6202900773170532
0.0115,1.79669375,1.0,1580.211817064318,0.12137101672604539,1.3441173982733077,0.7710572742251409,0.2885141375,0.6223954598393169
0.012,1.7964,1.0,1646.161801689865,0.12629943093316384,1.3432049384176878,0.7843326003777026,0.28850180000000003,0.6243953132835176
0.0125,1.79609375,1.0,1709.2721230797492,0.13120020030648505,1.3423349074114457,0.7965009505798547,0.2884889375,0.6262972294885106
0.013000000000000001,1.7957750000000001,1.0,1769.583840378194,0.13607348001611372,1.341504200269091,0.8076739335577032,0.28847555,0.6281086772913542
0.0135,1.79544375,1.0,1827.1570984647522,0.14091942423806636,1.340709866612578,0.8179508010896452,0.2884616375,0.6298366925792069
0.014,1.7951000000000001,1.0,1882.0693794718609,0.14573818755241696,1.3399490857272724,0.8274197764346857,0.2884472,0.6314879436007385
0.0145,1.79474375,1.0,1934.3695283065842,0.15052992122481393,1.3392196254909867,0.8361594487917913,0.2884322375,0.6330677477096771
0.015,1.794375,1.0,1984.1271111887927,0.15529477652090562,1.3385192537815334,0.844239671859543,0.28841675,0.6345813610305926
0.0155,1.79399375,1.0,2031.427381134853,0.16003290442208443,1.3378457728284092,0.8517225977463841,0.2884007375,0.6360339087435425
0.016,1.7936,1.0,2076.358088208602,0.16474445506976687,1.3371971374635463,0.8586636226258356,0.2883842,0.6374301354795608
0.0165,1.7931937500000001,1.0,2119.0167319296934,0.1694295790157018,1.3365713567779534,0.8651121561160844,0.2883671375,0.6387746230760447
0.017,1.792775,1.0,2159.46906522946,0.1740884230513886,1.3359669019620668,0.8711124441496875,0.28834955,0.6400709208737596
0.0175,1.7923437500000001,1.0,2197.7914989469446,0.1787211339683267,1.3353822442063237,0.8767040450061454,0.2883314375,0.6413225455074294
0.018000000000000002,1.7919,1.0,2234.0702135290057,0.18332785855801548,1.334815854701161,0.8819223806048262,0.2883128,0.6425329829104943
0.0185,1.79144375,1.0,2268.3900128303385,0.18790874244334188,1.3342663074327046,0.8867992453881556,0.2882936375,0.643705471030946
0.019,1.790975,1.0,2300.8454545116438,0.19246393232351916,1.3337321575823613,0.8913631964327884,0.28827395,0.6448432621027487
0.0195,1.79049375,1.0,2331.5133253983036,0.1969935721708969,1.3332122060773939,0.8956399861790444,0.2882537375,0.6459490616104477
0.02,1.79,1.0,2360.4603109195486,0.20149780401463505,1.3327054106963114,0.8996528575752982,0.288233,0.6470252222366031
0.0205,1.78949375,1.0,2387.7581602977643,0.20597676988389352,1.3322107292176237,0.9034227898884921,0.2882117375,0.6480740796960928
0.021,1.788975,1.0,2413.483264137902,0.21043061180783226,1.3317271194198401,0.9069687499728094,0.28818995000000003,0.6490979535759411
0.021500000000000002,1.78844375,1.0,2437.707897798295,0.21485947032880698,1.331253619473713,0.9103079290472029,0.2881676375,0.6500989782702951
0.022,1.7879,1.0,2460.510622687001,0.21926348765698045,1.3307892429141333,0.9134559147384265,0.2881448,0.6510793264422658
0.0225,1.78734375,1.0,2481.957609793021,0.22364280342423962,1.3303331540952827,0.916426894987854,0.28812143749999997,0.6520408396220095
0.023,1.786775,1.0,2502.1041415169543,0.2279975546276692,1.3298846479220618,0.9192338005852396,0.28809755,0.6529850735501828
0.0235,1.78619375,1.0,2521.0079049926594,0.23232787826435403,1.3294430192993711,0.9218884120854088,0.28807313749999996,0.6539135747286804
0.024,1.7856,1.0,2538.7287908082276,0.23663391133137882,1.329007563132111,0.9244014780131173,0.2880482,0.654827880745759
0.0245,1.78499375,1.0,2555.328702749411,0.2409157908258283,1.3285775743251822,0.9267828194970392,0.2880227375,0.6557295205694496
0.025,1.784375,1.0,2570.8321147520214,0.24517365043625827,1.3281527155238837,0.9290414850498344,0.28799675,0.6566192451986641
0.025500000000000002,1.78374375,1.0,2585.3640870944205,0.24940762965792274,1.327731721361198,0.9311856105797337,0.2879702375,0.6574997411148789
0.026000000000000002,1.7831009678351812,1.0,2598.991780308302,0.2536178612118666,1.3273143232334095,0.9332228236675305,0.2879432406490776,0.6583716001474973
0.0265,1.7824558867659115,1.0,2612.1678648731404,0.257804476628701,1.326900415652435,0.9351601559501707,0.28791614724416825,0.6592350709383457
0.027,1.7818108056966417,1.0,2625.0120401474833,0.26196760743903735,1.3264898931301923,0.9370040739337233,0.28788905383925895,0.6600904007775371
0.0275,1.781165724627372,1.0,2637.533030507224,0.2661073851734869,1.3260826501785985,0.9387605319169156,0.28786196043434964,0.6609378356266
0.028,1.7805206435581022,1.0,2649.7397418704627,0.27022394136266087,1.3256785813095708,0.9404350193207188,0.2878348670294403,0.6617776201408969
0.0285,1.7798755624888325,1.0,2661.641211425436,0.27431740729747883,1.3252775814283013,0.9420326030370354,0.28780777362453097,0.6626099968754937
0.029,1.7792304814195627,1.0,2673.243312031386,0.2783879127108578,1.3248795760312302,0.9435579691938079,0.28778068021962167,0.6634351437428831
0.029500000000000002,1.7785854003502932,1.0,2684.55182013756,0.28243558640689864,1.3244844927003085,0.9450154532128777,0.2877535868147123,0.6642532334088758
0.03,1.7779403192810235,1.0,2695.574096400154,0.28646055559483075,1.324092245664975,0.9464090682692841,0.287726493409803,0.6650644652418158
0.0305,1.7772952382117537,1.0,2706.3176328445747,0.29046294748388357,1.323702749154669,0.9477425355594368,0.28769940000489364,0.6658690375947369
0.031,1.776650157142484,1.0,2716.782771765311,0.2944428621794993,1.3233159836875605,0.9490193088223037,0.28767230659998433,0.6666670111356667
0.0315,1.7760050760732142,1.0,2726.9788426763507,0.29840042978822173,1.3229318486568231,0.9502425970873019,0.28764521319507497,0.667458613275149
0.032,1.7753599950039445,1.0,2736.9273562617113,0.302335825666768,1.3225501340639005,0.9514153855794918,0.28761811979016566,0.6682442953295912
0.0325,1.7747149139346747,1.0,2746.634231794595,0.3062491677626228,1.3221707730870729,0.9525404532108117,0.28759102638525635,0.6690242122719319
0.033,1.774069832865405,1.0,2756.105478271832,0.3101405740232709,1.3217936989046195,0.9536203900122097,0.287563932980347,0.669798518320418
0.0335,1.7734247517961352,1.0,2765.3471909761797,0.31401016239619717,1.3214188446948203,0.954657612249234,0.2875368395754377,0.6705673669484917
0.034,1.7727796707268655,1.0,2774.3655481377473,0.31785805082888635,1.3210461436359549,0.9556543761570901,0.2875097461705284,0.6713309108943937
0.0345,1.772134589657596,1.0,2783.166807694619,0.3216843572688233,1.320675528906303,0.9566127904358386,0.287482652765619,0.672089302170481
0.035,1.7714895085883262,1.0,2791.7573041525116,0.3254891996634926,1.3203069336841444,0.9575348276306906,0.2874555593607097,0.6728426920722612
0.035500000000000004,1.7708444275190565,1.0,2800.1434455429667,0.3292726959603793,1.3199402911477587,0.9584223345085492,0.28742846595580035,0.673591231187141
0.036000000000000004,1.7701993464497867,1.0,2808.331710481336,0.333034964106968,1.3195755344754254,0.9592770415297668,0.28740137255089104,0.6743350694028897
0.0365,1.769554265380517,1.0,2816.328645322702,0.3367761220507435,1.3192125968454247,0.9601005715033756,0.2873742791459817,0.6750743559158175
0.037,1.7689091843112472,1.0,2824.140861418099,0.3404962877391906,1.3188514114360357,0.9608944475045741,0.2873471857410724,0.6758092392386732
0.0375,1.7682641032419775,1.0,2831.7750324683984,0.3441955791197942,1.3184919114255385,0.961660100124898,0.28732009233616307,0.6765398672082493
0.038,1.7676190221727077,1.0,2839.2378919780567,0.347874114140039,1.3181340299922126,0.9623988741180954,0.2872929989312537,0.6772663869927104
0.0385,1.766973941103438,1.0,2846.5362308079357,0.35153201074740975,1.3177777003143378,0.9631120344981725,0.2872659055263444,0.6779889450986317
0.039,1.7663288600341684,1.0,2853.6768948263475,0.35516938688939126,1.317422855570194,0.9638007721402635,0.2872388121214351,0.6787076873777546
0.0395,1.7656837789648987,1.0,2860.666782659738,0.35878636051346835,1.3170694289380602,0.9644662089298093,0.28721171871652573,0.6794227590334578
0.04,1.765038697895629,1.0,2867.5128435424335,0.3623830495671258,1.3167173535962169,0.9651094025009448,0.2871846253116164,0.6801343046269417
0.0405,1.7643936168263592,1.0,2874.2212126045056,0.3659595685194093,1.316366570364239,0.9657313506451939,0.28715753190670706,0.6808424526657173
0.041,1.7637485357570895,1.0,2880.790022885704,0.3695160037868884,1.3160170912393632,0.9663329965369349,0.28713043850179776,0.6815471876422577
0.0415,1.7631034546878197,1.0,2887.2333916348075,0.3730525080767152,1.3156687869973296,0.9669152306578194,0.2871033450968884,0.6822487784299571
0.042,1.76245837361855,1.0,2893.554739370936,0.37656918829007524,1.3153216235103138,0.9674788948066296,0.2870762516919791,0.6829473014885841
0.0425,1.7618132925492802,1.0,2899.7575123436054,0.3800661513281542,1.3149755666504919,0.9680247852472751,0.2870491582870698,0.6836428329502601
0.043000000000000003,1.7611682114800105,1.0,2905.8451816828024,0.38354350409213755,1.3146305822900397,0.9685536556352353,0.2870220648821604,0.6843354486219086
0.043500000000000004,1.7605231304107407,1.0,2911.8212425748256,0.38700135348321096,1.3142866363011327,0.9690662197274652,0.2869949714772511,0.685025223987626
0.044,1.759878049341471,1.0,2917.689213463129,0.39043980640255993,1.3139436945559468,0.9695631538937947,0.2869678780723418,0.6857122342109769
0.0445,1.7592329682722014,1.0,2923.452635275875,0.3938589697513702,1.313601722926658,0.9700450994462015,0.28694078466743245,0.686396554137218
0.045,1.7585878872029317,1.0,2929.1150706790695,0.39725895043082726,1.313260687285442,0.9705126648008421,0.28691369126252314,0.6870782582954482
0.0455,1.757942806133662,1.0,2934.680103354912,0.4006398553421167,1.3129205535044746,0.9709664274863641,0.2868865978576138,0.68775742090068
0.046,1.7572977250643922,1.0,2940.151337307225,0.4040017913864241,1.3125812874559315,0.971406936010833,0.2868595044527045,0.6884341158558429
0.0465,1.7566526439951224,1.0,2945.5323961912127,0.4073448654649351,1.3122428550119885,0.9718347115984858,0.2868324110477951,0.6891084167537065
0.047,1.7560075629258527,1.0,2950.8269226703314,0.4106691844788352,1.3119052220448215,0.9722502498065572,0.2868053176428858,0.6897803968787328
0.0475,1.755362481856583,1.0,2956.0385777981023,0.4139748553293101,1.3115683544266064,0.9726540220315201,0.2867782242379765,0.6904501292088541
0.048,1.7547174007873132,1.0,2961.1710404262913,0.4172619849175453,1.3112322180295188,0.9730464769132766,0.28675113083306714,0.6911176864171749
0.0485,1.7540723197180434,1.0,2966.2280066387757,0.42053068014472633,1.3108967787257344,0.9734280416451024,0.28672403742815783,0.6917831408736026
0.049,1.753427238648774,1.0,2971.207707366638,0.4237810107678346,1.3105620501455635,0.9737991219869857,0.2866969440232485,0.6924464700554354
0.0495,1.7527821575795042,1.0,2976.1181901197433,0.4270131222019085,1.3102279604504112,0.9741601079712819,0.28666985061833916,0.6931078206466138
0.05,1.7521370765102344,1.0,2980.9623490135245,0.43022712007381536,1.3098944828872794,0.9745113697714455,0.28664275721342986,0.6937672496046738
0.0505,1.7514919954409647,1.0,2985.741915804803,0.4334231014621124,1.3095616009142483,0.9748532602390506,0.2866156638085205,0.6944247934930091
0.051000000000000004,1.750846914371695,1.0,2990.4586307504965,0.43660116344535665,1.3092292979893991,0.9751861161784455,0.2865885704036112,0.6950804887276256
0.051500000000000004,1.7502018333024252,1.0,2995.1142423920755,0.43976140310210543,1.3088975575708122,0.9755102592183428,0.2865614769987018,0.695734371577764
0.052000000000000005,1.7495567522331554,1.0,2999.710507346398,0.4429039175109158,1.3085663631165685,0.9758259966286665,0.2865343835937925,0.6963864781664988
0.0525,1.7489116711638857,1.0,3004.2491901021986,0.44602880375034487,1.3082356980847487,0.976133622086545,0.2865072901888832,0.6970368444713254
0.053,1.748266590094616,1.0,3008.7320628230527,0.4491361588989499,1.3079055459334337,0.9764334163950278,0.28648019678397385,0.6976855063247263
0.0535,1.7476215090253462,1.0,3013.160905156349,0.4522260800352881,1.307575890120704,0.9767256481578312,0.28645310337906454,0.6983324994147214
0.054,1.7469764279560764,1.0,3017.537504047973,0.4552986642379165,1.3072467141046402,0.977010574413152,0.28642600997415524,0.6989778592854001
0.0545,1.746331346886807,1.0,3021.863653563201,0.4583540085853923,1.3069180013433237,0.9772884412293636,0.2863989165692459,0.6996216213374349
0.055,1.7456862658175372,1.0,3026.1411547144207,0.4613922101562727,1.3065897352948346,0.9775594842651878,0.28637182316433657,0.7002638208285819
0.0555,1.7450411847482674,1.0,3030.3718152934325,0.46441336602911487,1.306261899417254,0.9778239292967387,0.2863447297594272,0.7009044928741577
0.056,1.7443961036789977,1.0,3034.5574497113034,0.4674175732824759,1.305934477168662,0.9780819927136609,0.2863176363545179,0.7015436724475045
0.0565,1.743751022609728,1.0,3038.6998788430083,0.470404928994913,1.3056074520071403,0.978333881986413,0.28629054294960854,0.7021813943804318
0.057,1.7431059415404582,1.0,3042.8009298795223,0.4733755302449833,1.3052808073907691,0.9785797961065942,0.28626344954469923,0.7028176933636483
0.0575,1.7424608604711884,1.0,3046.8620297909515,0.47632946810089616,1.3049545302739216,0.9788199256747606,0.2862363561397899,0.7034525971473591
0.058,1.7418157794019187,1.0,3050.8817604965166,0.47926679714162396,1.3046286321141065,0.9790544518797231,0.28620926273488057,0.7040860857662257
0.0585,1.741170698332649,1.0,3054.86535604135,0.48218767320497596,1.3043030671919846,0.9792835541682824,0.28618216932997126,0.7047182503110667
0.059000000000000004,1.7405256172633792,1.0,3058.8136166580807,0.4850921835050244,1.3039778279848275,0.9795074011593518,0.28615507592506195,0.7053491074414113
0.059500000000000004,1.7398805361941097,1.0,3062.727345558579,0.4879804152558414,1.303652906969907,0.9797261548837245,0.2861279825201526,0.7059786737523119
0.06,1.73923545512484,1.0,3066.6073488803668,0.4908524556714991,1.3033282966244946,0.9799399710927739,0.2861008891152433,0.7066069657744982
0.0605,1.7385903740555702,1.0,3070.4544356337533,0.49370839196606975,1.3030039894258616,0.9801489995503787,0.286073795710334,0.7072339999745292
0.061,1.7379452929863004,1.0,3074.2694176507844,0.4965483113536256,1.3026799778512803,0.9803533843091108,0.2860467023054246,0.7078597927549377
0.0615,1.7373002119170307,1.0,3078.0531095356228,0.4993723010482387,1.3023562543780216,0.9805532639716406,0.28601960890051525,0.7084843604543785
0.062,1.736655130847761,1.0,3081.80632861552,0.5021804482639812,1.3020328114833577,0.980748771938266,0.28599251549560595,0.7091077193477631
0.0625,1.7360100497784912,1.0,3085.529894893427,0.5049728402149255,1.3017096416445597,0.9809400366413932,0.28596542209069664,0.709729885646401
0.063,1.7353649687092214,1.0,3089.224631001888,0.5077495641151436,1.3013867373388996,0.9811271817677539,0.2859383286857873,0.7103508754981286
0.0635,1.7347198876399517,1.0,3092.891362158308,0.5105107071787077,1.3010640910436488,0.9813103264690873,0.285911235280878,0.7109707049874412
0.064,1.734074806570682,1.0,3096.530916120865,0.51325635661969,1.300741695236079,0.9814895855619646,0.28588414187596867,0.7115893901356165
0.0645,1.7334297255014124,1.0,3100.144123146493,0.5159865996521628,1.3004195423934617,0.9816650697173893,0.2858570484710593,0.712206946900839
0.065,1.7327846444321426,1.0,3103.7318159496576,0.5187015234901982,1.3000976249930687,0.9818368856407751,0.28582995506615,0.7128233911783148
0.0655,1.732139563362873,1.0,3107.2948296622517,0.5214012153478682,1.2997759355121712,0.9820051362428445,0.2858028616612407,0.7134387388003909
0.066,1.7314944822936031,1.0,3110.8340017950554,0.5240857624392451,1.2994544664280414,0.9821699208019792,0.28577576825633133,0.7140530055366614
0.0665,1.7308494012243334,1.0,3114.3501722005976,0.5267552519784012,1.2991332102179503,0.9823313351184999,0.28574867485142197,0.7146662070940804
0.067,1.7302043201550636,1.0,3117.8441830366346,0.5294097711794087,1.29881215935917,0.9824894716613362,0.28572158144651266,0.7152783591170601
0.0675,1.729559239085794,1.0,3121.316604076091,0.5320493987730578,1.2984913086635403,0.9826444192727282,0.28569448804160336,0.71588947274339
0.068,1.7289141580165241,1.0,3124.766983951316,0.534674189485738,1.2981706616316369,0.9827962626436673,0.285667394636694,0.7164995425451273
0.0685,1.7282690769472544,1.0,3128.1973867616853,0.5372842775982059,1.2978502004006998,0.9829450876063561,0.2856403012317847,0.717108603703007
0.069,1.7276239958779849,1.0,3131.6081866356467,0.539879741069001,1.2975299214903264,0.9830909742248746,0.2856132078268754,0.7177166639603323
0.0695,1.7269789148087151,1.0,3134.99975881944,0.5424606578566629,1.2972098214201129,0.983233999889806,0.285586114421966,0.7183237310313285
0.07,1.7263338337394454,1.0,3138.3724796629886,0.545027105919731,1.2968898967096558,0.983374239425812,0.2855590210170567,0.7189298126011796
0.07050000000000001,1.7256887526701756,1.0,3141.726726605983,0.5475791632167448,1.2965701438785524,0.9835117651941753,0.2855319276121474,0.7195349163260674
