Time [s],Phi [rad],STIM [ ],Fsee [N],Gamma [ ],Lcerel [ ],q [ ],Lmtc [m],fisomrel [ ]
0.0,1.8,1.0,18.029364318765968,0.00025362257076240116,1.3793327830722022,0.0050167111441007045,0.288653,0.5411563765519694
0.0005,1.79999375,1.0,18.417747084066846,0.005861409257549375,1.379286755200713,0.013630684950949164,0.2886527375,0.5412677210756198
0.001,1.799975,1.0,21.940260926821896,0.011437740694803451,1.3789055483423118,0.03688938188180327,0.28865195,0.5421893668221047
0.0015,1.79994375,1.0,31.78281932396939,0.016982793322588893,1.3779857540051064,0.07234756364706799,0.2886506375,0.5444093423762475
0.002,1.7999,1.0,55.07475945844364,0.022496742589112818,1.3762719792160263,0.11678075627946578,0.2886488,0.5485312425282344
0.0025,1.79984375,1.0,99.5896428384377,0.027979762959647835,1.3738168575968248,0.16681597232820428,0.28864643749999996,0.5544035617871022
0.003,1.7997750000000001,1.0,164.14874923428553,0.03343202792222254,1.3710955032570644,0.21959055506426492,0.28864354999999997,0.5608677533877108
0.0035,1.79969375,1.0,241.27495615423342,0.03885370998895548,1.3684745175033164,0.2729092154385282,0.2886401375,0.567048883771359
0.004,1.7996,1.0,325.2800817864553,0.04424498070623542,1.3660553901252488,0.3251383349223777,0.2886362,0.5727150872457013
0.0045000000000000005,1.7994937500000001,1.0,413.21128289793523,0.04960601066011178,1.3638304663594554,0.3751436229537273,0.2886317375,0.5778934685862922
0.005,1.799375,1.0,503.43319738125786,0.05493696946810653,1.3617730953905474,0.42222025802455965,0.28862675,0.5826537865163964
0.0055,1.79924375,1.0,594.8425759152672,0.06023802581712452,1.3598598009718463,0.4659999154949238,0.2886212375,0.5870565167235433
0.006,1.7991000000000001,1.0,686.5716375933168,0.0655093474311484,1.3580728414525207,0.5063580706590428,0.2886152,0.5911474496623659
0.006500000000000001,1.79894375,1.0,777.9072541597537,0.0707511010803462,1.356398616371781,0.5433350229710107,0.2886086375,0.5949618183937504
0.007,1.798775,1.0,868.262800775015,0.07596345268704037,1.354826227602696,0.5770749040223776,0.28860155,0.5985278960626267
0.0075,1.79859375,1.0,957.1470726190345,0.0811465670071863,1.353346795183855,0.607781533116115,0.2885939375,0.6018687574403663
0.008,1.7984,1.0,1044.1848343323927,0.08630060832669582,1.351952362316902,0.6356874235214609,0.2885858,0.6050048936847963
0.0085,1.79819375,1.0,1129.0547527810074,0.09142573947306233,1.3506363333433853,0.6610339441968279,0.2885771375,0.6079533218734261
0.009000000000000001,1.797975,1.0,1211.511784816389,0.09652212249573924,1.3493927236045191,0.6840581591279257,0.28856795,0.6107293516971177
0.0095,1.79774375,1.0,1291.3965121370663,0.10158991916731037,1.3482157839590692,0.7049851057990945,0.2885582375,0.6133474738576877
0.01,1.7975,1.0,1368.5709967646887,0.10662928945256583,1.347100662590165,0.7240241373221638,0.288548,0.6158199299409072
0.0105,1.79724375,1.0,1442.9453235085841,0.11164039265521102,1.3460428452130604,0.7413668697765629,0.2885372375,0.6181580015205674
0.011,1.796975,1.0,1514.48050821256,0.1166233874165183,1.3450379938504398,0.7571868251972417,0.28852595000000003,0.6203723941315813
0.0115,1.79669375,1.0,1583.1703549064437,0.12157843205496072,1.3440820715204023,0.7716400952169443,0.2885141375,0.622472984879556
0.012,1.7964,1.0,1648.9990387123266,0.12650568255571068,1.343171744407309,0.7848665921318398,0.28850180000000003,0.6244679650524381
0.0125,1.79609375,1.0,1711.9907212247838,0.13140529484743127,1.3423036930678967,0.7969910488727328,0.2884889375,0.6263653753573954
0.013000000000000001,1.7957750000000001,1.0,1772.1875736721533,0.13627742380635954,1.341474817776353,0.8081245283254889,0.28847555,0.6281726684458118
0.0135,1.79544375,1.0,1829.6690970626057,0.14112222503799035,1.3406819688332619,0.8183657185407657,0.2884616375,0.6298973090302692
0.014,1.7951000000000001,1.0,1884.4747474825808,0.14593985067030876,1.3399227641203593,0.8278025746140548,0.2884472,0.631545007757572
0.0145,1.79474375,1.0,1936.6646639855514,0.15073045268590865,1.3391948514269627,0.836513247627323,0.2884322375,0.6331213417265329
0.015,1.794375,1.0,1986.320177399025,0.15549418305784304,1.3384958797073185,0.8445672059582131,0.28841675,0.6346318221338283
0.0155,1.79399375,1.0,2033.5243371479253,0.16023119229003752,1.3378236844407823,0.8520263113765503,0.2884007375,0.6360814994606339
0.016,1.7936,1.0,2078.3771433818624,0.16494163191209382,1.3371761007012788,0.8589456580470982,0.2883842,0.6374753734562535
0.0165,1.7931937500000001,1.0,2120.943171675572,0.16962564961037488,1.3365514877352922,0.8653745277500683,0.2883671375,0.638817270737122
0.017,1.792775,1.0,2161.2990776459765,0.1742833930712435,1.3359482047893054,0.871356920059838,0.28834955,0.6401109811825347
0.0175,1.7923437500000001,1.0,2199.5325858059005,0.1789150099810625,1.3353646111098023,0.8769321766517119,0.2883314375,0.6413602602524587
0.018000000000000002,1.7919,1.0,2235.725245999792,0.18352064639142665,1.3347992295701205,0.8821355716484149,0.2883128,0.6425684817578244
0.0185,1.79144375,1.0,2269.9796650328008,0.1881004504818404,1.3342504601588054,0.8869987128321527,0.2882936375,0.6437392534554427
0.019,1.790975,1.0,2302.3661268935016,0.19265456600224595,1.333717105119247,0.891550094155422,0.28827395,0.6448752989503492
0.0195,1.79049375,1.0,2332.95506043463,0.19718313600048964,1.3331980289984824,0.8958153680075168,0.2882537375,0.645979188365837
0.02,1.79,1.0,2361.8226765645923,0.2016863035244179,1.3326920963435498,0.8998176528916043,0.288233,0.6470534726738972
0.0205,1.78949375,1.0,2389.0504809566605,0.20616421162187715,1.3321981717014868,0.9035778178452053,0.2882117375,0.6481006846881043
0.021,1.788975,1.0,2414.7087152302615,0.21061700115889534,1.3317152752098773,0.907114764655627,0.28818995000000003,0.6491230108177148
0.021500000000000002,1.78844375,1.0,2438.885695159869,0.2150448161177433,1.331242292479613,0.9104455838514699,0.2881676375,0.6501229071200592
0.022,1.7879,1.0,2461.641449397405,0.21944779532954076,1.3307784180881577,0.9135858378354763,0.2881448,0.6511021623950765
0.0225,1.78734375,1.0,2483.034175656491,0.22382607685933703,1.3303228932363702,0.9165496718778134,0.28812143749999997,0.652062456007505
0.023,1.786775,1.0,2503.124797650531,0.22817979877218117,1.3298749591251098,0.9193499546374337,0.28809755,0.6530054570861198
0.0235,1.78619375,1.0,2521.9767360327915,0.2325090991331224,1.329433856955235,0.9219984110429431,0.28807313749999996,0.6539328249094315
0.024,1.7856,1.0,2539.649703063448,0.2368141148216692,1.328998884363748,0.9245057494177173,0.2880482,0.6548460908399529
0.0245,1.78499375,1.0,2556.2049875346015,0.2410949830435094,1.3285693429568655,0.9268817556273928,0.2880227375,0.6557467693523398
0.025,1.784375,1.0,2571.7077133968605,0.24535184134067758,1.328144515433747,0.9291353812791883,0.28799675,0.6566364062205082
0.025500000000000002,1.78374375,1.0,2586.2013562948973,0.24958482249012834,1.3277239022663627,0.9312748633658426,0.2879702375,0.6575160838115675
0.026000000000000002,1.7831000000000001,1.0,2599.7306612789826,0.2537940592688164,1.327307003926683,0.9333077592865133,0.2879432,0.6583868787644718
0.0265,1.78244375,1.0,2612.3415363742433,0.25797968445369635,1.326893320886678,0.9352410120879554,0.2879156375,0.6592498621163245
0.027,1.781775,1.0,2624.0809516822505,0.26214183082172293,1.3264823536183181,0.937081008647375,0.28788755,0.6601060994127662
0.0275,1.7810937500000001,1.0,2634.996226313223,0.26628063082244263,1.3260736083080482,0.9388336323604453,0.2878589375,0.6609566389189081
0.028,1.7804,1.0,2645.129003895621,0.2703962136556709,1.3256666515992892,0.9405043164073474,0.2878298,0.6618023980743215
0.0285,1.77969375,1.0,2654.528702465734,0.27448871480896403,1.3252609853188497,0.9420980703002217,0.2878001375,0.662644424200928
0.029,1.778975,1.0,2663.227894683624,0.2785582615074839,1.324856272920444,0.9436195441849452,0.28776995,0.6634834245670853
0.029500000000000002,1.7782437500000001,1.0,2671.2596920824826,0.28260498097639236,1.324452177857786,0.9450730411675352,0.2877392375,0.6643201029443226
0.03,1.7775,1.0,2678.6576970839037,0.28662900044085116,1.3240483635845899,0.9464625476552045,0.287708,0.6651551596242011
0.0305,1.77674375,1.0,2685.4559575245976,0.2906304471260221,1.3236444935545693,0.9477917606843308,0.2876762375,0.665989291427954
0.031,1.775975,1.0,2691.6889236939824,0.29460944825706703,1.3232402312214384,0.9490641125673088,0.28764395,0.6668231917089
0.0315,1.7751937500000001,1.0,2697.3871168407863,0.2985661281257149,1.322835279274336,0.9502827971218144,0.2876111375,0.6676574695658847
0.032,1.7744,1.0,2702.577171037485,0.30250061041102916,1.3224293787200623,0.9514507900135646,0.2875778,0.6684926522263861
0.0325,1.77359375,1.0,2707.3003466011783,0.3064130305253231,1.3220221394582257,0.9525708499264105,0.2875439375,0.6693295334781475
0.033,1.772775,1.0,2711.5770271712145,0.31030350897378484,1.3216133643319015,0.9536455665290289,0.28750955,0.6701685072803432
0.0335,1.7719437500000002,1.0,2715.427780606068,0.3141721662616026,1.3212028561841649,0.9546773558117801,0.2874746375,0.6710099654946897
0.034,1.7711000000000001,1.0,2718.8733414510307,0.31801912289396467,1.3207904178580911,0.9556684738020965,0.2874392,0.6718542978648957
0.0345,1.7702437500000001,1.0,2721.9345942682794,0.3218444993760591,1.320375852196756,0.9566210290425481,0.2874032375,0.6727018919936302
0.035,1.7693750000000001,1.0,2724.6325578287383,0.32564841621307405,1.3199589620432342,0.9575369939562117,0.28736675,0.6735531333170162
0.035500000000000004,1.76849375,1.0,2726.9883701653807,0.3294309939101978,1.319539550240601,0.9584182152102017,0.2873297375,0.6744084050766402
0.036000000000000004,1.7676,1.0,2729.0232744887344,0.33319235297261846,1.3191174196319324,0.9592664231760878,0.2872922,0.6752680882890854
0.0365,1.76669375,1.0,2730.7586059642613,0.3369326139055242,1.3186923730603028,0.9600832405752355,0.2872541375,0.6761325617129872
0.037,1.765775,1.0,2732.2114604036424,0.34065189244919775,1.3182642526068875,0.9608701932487271,0.28721555,0.6770021221702146
0.0375,1.76484375,1.0,2733.3983749690515,0.34435030767561364,1.3178329060113816,0.9616287156389298,0.2871764375,0.6778770531133937
0.038,1.7639,1.0,2734.3406381950117,0.3480279845180781,1.3173981383645221,0.9623601531736917,0.28713679999999997,0.678757722457703
0.0385,1.76294375,1.0,2735.050042086649,0.3516850362137869,1.3169598414405248,0.9630657772345544,0.28709663750000003,0.6796443205165733
0.039,1.761975,1.0,2735.5384156515333,0.35532157599993563,1.3165179070136055,0.9637467846353609,0.28705595,0.6805370361598424
0.0395,1.7609937500000001,1.0,2735.8176199533596,0.35893771711372013,1.3160722268579799,0.9644043027964039,0.2870147375,0.6814360567890234
0.04,1.76,1.0,2735.8995434234967,0.3625335727923361,1.3156226927478638,0.9650393945062461,0.286973,0.6823415683118226
0.0405,1.7589937500000001,1.0,2735.7960974337534,0.3661092562729792,1.3151691964574732,0.9656530623080944,0.2869307375,0.6832537551159141
0.041,1.757975,1.0,2735.5192121276737,0.3696648807928452,1.3147116297610237,0.9662462525439784,0.28688795,0.6841728000419653
0.0415,1.75694375,1.0,2735.0808325121866,0.37320055958912984,1.3142498844327313,0.9668198590867303,0.2868446375,0.6850988843559154
0.042,1.7559,1.0,2734.4929148088795,0.3767164058990288,1.3137838522468117,0.9673747267868522,0.28680079999999997,0.6860321877205071
0.0425,1.75484375,1.0,2733.7660113630423,0.38021253234099256,1.3133134377993005,0.9679116556166223,0.2867564375,0.6869728625458669
0.043000000000000003,1.753775,1.0,2732.90638135669,0.3836890486307192,1.3128385847357822,0.9684314053185126,0.28671155,0.6879209818256149
0.043500000000000004,1.75269375,1.0,2731.929354847606,0.387146066602256,1.3123591543429334,0.968934689012174,0.28666613750000003,0.6888767815630342
0.044,1.7516,1.0,2730.841132673722,0.39058369399292225,1.3118750908441894,0.9694221882863138,0.2866202,0.6898403307108694
0.0445,1.75049375,1.0,2729.64791785204,0.3940020385400376,1.3113863384629851,0.9698945492838965,0.2865737375,0.6908116971256865
0.045,1.7493750000000001,1.0,2728.355914361104,0.39740120798092154,1.3108928414227556,0.9703523848898821,0.28652675,0.6917909475512924
0.0455,1.74824375,1.0,2726.971325992906,0.40078131005289347,1.3103945439469362,0.9707962767633279,0.2864792375,0.6927781476019563
0.046,1.7471,1.0,2725.500355274157,0.40414245249327285,1.3098913902589617,0.9712267772263276,0.2864312,0.6937733617454334
0.0465,1.7459437500000001,1.0,2723.9173666192632,0.40748474041816896,1.3093836142535284,0.9716444319373096,0.28638263750000004,0.6947760817328569
0.047,1.744775,1.0,2722.3087043654127,0.410808282947021,1.3088704309428476,0.9720496862181685,0.28633355,0.6957878089578431
0.0475,1.74359375,1.0,2720.653828120328,0.41411318393396795,1.3083520275451221,0.972443032620138,0.28628393750000003,0.6968081221582023
0.048,1.7424013895744284,1.0,2718.992760846419,0.41739954679797503,1.307828667500803,0.9728249450710369,0.286233858362126,0.6978364523746174
0.0485,1.7412072835850079,1.0,2717.760857470326,0.4206674749580073,1.3073006142503416,0.9731958746715471,0.2861837059105703,0.6988722336778148
0.049,1.7400131775955874,1.0,2717.015438877367,0.42391707183303007,1.3067681312341883,0.9735562510118316,0.2861335534590147,0.6999149032496295
0.0495,1.7388190716061669,1.0,2716.727390246286,0.42714844084200837,1.3062314818927947,0.9739064834008286,0.286083401007459,0.7009639014596396
0.05,1.7376249656167462,1.0,2716.870461691839,0.43036168358938803,1.3056909047184744,0.9742469601318136,0.28603324855590334,0.702018720575257
0.0505,1.7364308596273257,1.0,2717.395705841621,0.4335569040387335,1.3051468459223745,0.9745780655591152,0.2859830961043477,0.7030784516059523
0.051000000000000004,1.7352367536379052,1.0,2718.2718249937,0.4367342030914557,1.3045995915842246,0.9749001555758015,0.285932943652792,0.7041425025724605
0.051500000000000004,1.7340426476484847,1.0,2719.474350999173,0.4398936800212549,1.304049366064033,0.9752135657632941,0.2858827912012364,0.7052104049619248
0.052000000000000005,1.732848541659064,1.0,2720.978855703543,0.4430354341018314,1.3034963937218078,0.975518616640755,0.2858326387496807,0.7062816932329637
0.0525,1.7316544356696435,1.0,2722.760936725294,0.4461595646068853,1.3029408989175577,0.9758156144784482,0.285782486298125,0.7073559048565756
0.053,1.730460329680223,1.0,2724.7962043496677,0.4492661708101169,1.3023831060112907,0.976104852060486,0.2857323338465694,0.7084325803538409
0.0535,1.7292662236908023,1.0,2727.065335916319,0.452355349332842,1.3018231932909872,0.976386606286253,0.28568218139501367,0.7095113520141307
0.054,1.7280721177013818,1.0,2729.5459312358175,0.45542719955520433,1.3012613670088886,0.976661144083843,0.285632028943458,0.7105918008543869
0.0545,1.7268780117119613,1.0,2732.2123692020823,0.4584818232708595,1.3006978625428522,0.9769287229513106,0.28558187649190236,0.7116734549176018
0.055,1.7256839057225408,1.0,2735.0527017525465,0.4615193149197455,1.3001327908418285,0.9771895813155831,0.2855317240403467,0.7127560837420128
0.0555,1.72448979973312,1.0,2738.054972576167,0.46453976894180043,1.2995662628547673,0.9774439475999153,0.28548157158879106,0.7138394584159071
0.056,1.7232956937436996,1.0,2741.2072133944725,0.4675432797769623,1.2989983895306187,0.9776920407291558,0.28543141913723535,0.7149233515883175
0.0565,1.7221015877542791,1.0,2744.497440516192,0.4705299418651692,1.298429281818333,0.9779340706055328,0.2853812666856797,0.716007537478935
0.057,1.7209074817648586,1.0,2747.913651663722,0.47349984964635916,1.2978590506668601,0.9781702385569023,0.28533111423412405,0.7170917918872348
0.0575,1.719713375775438,1.0,2751.443823073375,0.4764530975604703,1.2972878070251506,0.9784007377592608,0.2852809617825684,0.718175892200819
0.058,1.7185192697860174,1.0,2755.075906868383,0.4793897800474405,1.296715661842154,0.9786257536351962,0.28523080933101275,0.7192596174029735
0.0585,1.717325163796597,1.0,2758.8014453167216,0.48230998756268606,1.2961426933682156,0.9788454620688529,0.28518065687945704,0.7203428098361575
0.059000000000000004,1.7161310578071762,1.0,2762.6107079744243,0.4852138146500291,1.2955689911847845,0.9790600329817688,0.2851305044279014,0.7214252916135484
0.059500000000000004,1.7149369518177557,1.0,2766.491722794168,0.4881013586924554,1.2949946649001196,0.9792696309775484,0.28508035197634574,0.7225068484708742
0.06,1.7137428458283352,1.0,2770.439514919581,0.490972708644307,1.2944197607112298,0.9794744101535048,0.2850301995247901,0.7235873868072137
0.0605,1.7125487398389148,1.0,2774.449097240692,0.49382795345992603,1.2938443248151243,0.9796745186874776,0.28498004707323443,0.7246668136924226
0.061,1.7113546338494943,1.0,2778.515469825991,0.4966671820936545,1.293268403408812,0.9798700991120081,0.2849298946216787,0.7257450368687701
0.0615,1.7101605278600736,1.0,2782.6336194014225,0.4994904834998346,1.2926920426893023,0.980061288573806,0.2848797421701231,0.7268219647524352
0.062,1.708966421870653,1.0,2786.7985188765883,0.5022979466328085,1.2921152888536036,0.9802482190794024,0.2848295897185674,0.7278975064348716
0.0625,1.7077723158812326,1.0,2791.0051269184696,0.5050896604469179,1.2915381880987256,0.9804310177278225,0.28477943726701177,0.728971571684031
0.063,1.7065782098918119,1.0,2795.2483875726334,0.5078657138965054,1.2909607866216768,0.9806098069310569,0.2847292848154561,0.7300440709454562
0.0635,1.7053841039023914,1.0,2799.523229931325,0.5106261959359126,1.2903831306194666,0.9807847046230567,0.2846791323639004,0.7311149153432328
0.064,1.7041899979129709,1.0,2803.8267793739174,0.5133711888810601,1.2898052464554084,0.9809558229765423,0.28462897991234476,0.7321840533383929
0.0645,1.7029958919235504,1.0,2808.156514883355,0.5161007775790651,1.2892271572464833,0.9811232701506922,0.2845788274607891,0.7332514397675958
0.065,1.7018017859341297,1.0,2812.50413606658,0.5188150656571672,1.2886489377924473,0.9812871543307466,0.28452867500923346,0.7343169346661094
0.0655,1.7006076799447092,1.0,2816.868005443415,0.5215141356762674,1.2880706030466202,0.9814475754426621,0.2844785225576778,0.735380509121035
0.066,1.6994135739552887,1.0,2821.246480449882,0.5241980701972667,1.2874921679623226,0.9816046299019764,0.2844283701061221,0.7364421344398078
0.0665,1.6982194679658682,1.0,2825.6379134030594,0.5268669517810662,1.2869136474928744,0.9817584107627163,0.28437821765456645,0.7375017821503017
0.067,1.6970253619764475,1.0,2830.0406514696247,0.5295208629885668,1.2863350565915956,0.9819090078589726,0.2843280652030108,0.7385594240009175
0.0675,1.695831255987027,1.0,2834.453036640526,0.5321598863806696,1.285756410211807,0.9820565079395552,0.28427791275145514,0.7396150319606551
0.068,1.6946371499976065,1.0,2838.8734057099455,0.5347841045182755,1.2851777233068284,0.982200994796111,0.2842277602998995,0.7406685782191773
0.0685,1.6934430440081858,1.0,2843.300090259249,0.5373935999622856,1.28459901082998,0.982342549385068,0.2841776078483438,0.7417200351868524
0.069,1.6922489380187653,1.0,2847.7314166464307,0.5399884552736011,1.284020287734582,0.9824812499437395,0.28412745539678813,0.742769375494787
0.0695,1.6910548320293448,1.0,2852.1657059995796,0.5425687530131226,1.2834415689739551,0.9826171721009103,0.2840773029452325,0.7438165719948426
0.07,1.6898607260399243,1.0,2856.6012742162393,0.5451345757417513,1.2828628695014188,0.9827503889822011,0.2840271504936768,0.7448615977596407
0.07050000000000001,1.6886666200505036,1.0,2861.0364319671203,0.5476860060203883,1.2822842042702938,0.9828809713104913,0.2839769980421212,0.745904426082548
0.07100000000000001,1.6874725140610831,1.0,2865.4694847050796,0.5502231264099345,1.2817055882339001,0.9830089875016653,0.28392684559056547,0.746945030477654
0.07150000000000001,1.6862784080716626,1.0,2869.9007717391855,0.55274599917847,1.2811270182703185,0.983134501729764,0.2838766931390098,0.7479834170868622
0.07200000000000001,1.6850843020822421,1.0,2874.328461768445,0.5552547193313746,1.2805485104939267,0.9832575789122796,0.28382654068745417,0.7490195575881349
0.0725,1.6838901960928214,1.0,2878.750501532444,0.5577493811805543,1.2799700829342002,0.9833782819279917,0.2837763882358985,0.7500534204777329
