Time [s],Phi [rad],STIM [ ],Fsee [N],Gamma [ ],Lcerel [ ],q [ ],Lmtc [m],fisomrel [ ]
0.0,1.8,1.0,18.535246432731295,0.0007684502963752681,1.379276596619321,0.005152034369366671,0.288653,0.5412922935486763
0.0005,1.79999375,1.0,19.07487640563981,0.006373349206753438,1.3792146781537329,0.015179525720198313,0.2886527375,0.5414420531656914
0.001,1.799975,1.0,22.980007754473554,0.011946809065743138,1.3788013554970366,0.039669660720073927,0.28865195,0.5424411131173714
0.0015,1.79994375,1.0,33.69376238797547,0.017489006222269825,1.377827135672955,0.0760890521532325,0.2886506375,0.544791631215467
0.002,1.7999,1.0,58.69478144105028,0.023000116034666167,1.376044020834925,0.12117048271238395,0.2886488,0.5490781071246893
0.0025,1.79984375,1.0,105.25752405031614,0.028480312878518686,1.3735508771528548,0.1715653003412427,0.28864643749999996,0.5550374431707039
0.003,1.7997750000000001,1.0,171.26053166150535,0.033929770151755446,1.3708346971779202,0.22447298793425208,0.28864354999999997,0.5614847811510213
0.0035,1.79969375,1.0,249.16948049019538,0.03934866027792616,1.3682351046267627,0.27775316174716197,0.2886401375,0.5676113128843021
0.004,1.7996,1.0,333.5970248833763,0.04473715471543184,1.3658377832826352,0.3298199381548461,0.2886362,0.5732229474580601
0.0045000000000000005,1.7994937500000001,1.0,421.7696234563224,0.05009542396274107,1.363631555098154,0.3795816671516657,0.2886317375,0.5783548856406194
0.005,1.799375,1.0,512.1199905166449,0.05542363754341375,1.3615900265248744,0.4263683872199129,0.28862675,0.5830760609621832
0.0055,1.79924375,1.0,603.5803936834745,0.06072196407784752,1.3596902879044328,0.46983771702083454,0.2886212375,0.5874454616939613
0.006,1.7991000000000001,1.0,695.2913297320536,0.06599057118000873,1.3579153078516435,0.5098833445878405,0.2886152,0.5915071186398702
0.006500000000000001,1.79894375,1.0,786.5499642471258,0.0712296255271221,1.356251868391674,0.5465573642713633,0.2886086375,0.5952953005977085
0.007,1.798775,1.0,876.78913194374,0.0764392930147955,1.3546891515181212,0.5800108820273682,0.28860155,0.5988380286841686
0.0075,1.79859375,1.0,965.5185093986579,0.08161973830359419,1.3532185764361404,0.6104515571152632,0.2885939375,0.6021576443253395
0.008,1.7984,1.0,1052.3656372414416,0.08677112542565424,1.3518323719251288,0.6381134522092832,0.2885858,0.6052741775049038
0.0085,1.79819375,1.0,1137.0201858614041,0.09189361725824892,1.3505239568940035,0.6632379515936687,0.2885771375,0.6082045779444221
0.009000000000000001,1.797975,1.0,1219.2601052039486,0.09698737611428955,1.3492871784269307,0.6860611642663224,0.28856795,0.610964499319367
0.0095,1.79774375,1.0,1298.9045586904936,0.10205256295274624,1.348116711106826,0.7068070133513982,0.2885582375,0.6135674599750214
0.01,1.7975,1.0,1375.8253954292315,0.107089337876893,1.3470076630601393,0.7256832324890774,0.288548,0.6160257709743011
0.0105,1.79724375,1.0,1449.9546734921666,0.11209786081183008,1.345955323919206,0.7428796729689561,0.2885372375,0.6183511283544558
0.011,1.796975,1.0,1521.2389383103362,0.1170782899107308,1.3449556146343629,0.7585683478460772,0.28852595000000003,0.6205536477430771
0.0115,1.79669375,1.0,1589.6580368315977,0.12203078247435922,1.3440047199989031,0.7729038863697736,0.2885141375,0.6226427060538147
0.012,1.7964,1.0,1655.218075681657,0.1269554951184001,1.3430990850723432,0.7860246483974526,0.28850180000000003,0.6246269700973246
0.0125,1.79609375,1.0,1717.9714192579981,0.1318525848579974,1.3422351111299315,0.7980539365862823,0.2884889375,0.626515078794271
0.013000000000000001,1.7957750000000001,1.0,1777.9422701394808,0.1367222057971681,1.341409953911602,0.8091017436587778,0.28847555,0.6283139138076461
0.0135,1.79544375,1.0,1835.172473646869,0.1415645115339193,1.3406209162383484,0.8192658697644348,0.2884616375,0.6300299471331251
0.014,1.7951000000000001,1.0,1889.7300517333433,0.14637965553842244,1.339865314440351,0.828633198767659,0.2884472,0.6316695409450299
0.0145,1.79474375,1.0,1941.6949286198733,0.15116779045165582,1.3391406052340948,0.8372809754925403,0.2884322375,0.6332386794689153
0.015,1.794375,1.0,1991.1448611903602,0.1559290684817705,1.3384445027801963,0.8452779571849427,0.28841675,0.6347427249294186
0.0155,1.79399375,1.0,2038.1455132215592,0.16066363924286184,1.3377750472274783,0.8526854213202202,0.2884007375,0.6361862801992182
0.016,1.7936,1.0,2082.7784168888265,0.1653716523490252,1.337130278724764,0.8595579435102568,0.2883842,0.6375739004048562
0.0165,1.7931937500000001,1.0,2125.128506563043,0.17005325641817282,1.3365083518235845,0.8659442255783394,0.2883671375,0.6389098506153529
0.017,1.792775,1.0,2165.2946237075494,0.17470860117823156,1.3359074099236727,0.8718877555804104,0.28834955,0.6401983799692912
0.0175,1.7923437500000001,1.0,2203.363422513613,0.17933783443911994,1.3353258383385254,0.8774274912961151,0.2883314375,0.6414431828525675
0.018000000000000002,1.7919,1.0,2239.4021420121035,0.18394110119744325,1.3347623164242453,0.8825984017376874,0.2883128,0.6426472943312294
0.0185,1.79144375,1.0,2273.4861512292946,0.18851854644980684,1.334215523536936,0.887431854174943,0.2882936375,0.6438137239379202
0.019,1.790975,1.0,2305.6982747210236,0.19307031519281612,1.3336841390327003,0.8919560308188748,0.28827395,0.6449454571364972
0.0195,1.79049375,1.0,2336.1233245203553,0.19759655176270285,1.3331668897452877,0.8961963047296378,0.2882537375,0.6460453557954442
0.02,1.79,1.0,2364.8443184929683,0.20209740000797474,1.3326625796373097,0.9001755649177952,0.288233,0.6471160972865133
0.0205,1.78949375,1.0,2391.9443173542795,0.2065730036622149,1.3321700645240755,0.9039144884827623,0.2882117375,0.6481602303382383
0.021,1.788975,1.0,2417.4842122336645,0.21102350275643894,1.3316884606283366,0.9074318282435208,0.28818995000000003,0.6491797356058815
0.021500000000000002,1.78844375,1.0,2441.528722667717,0.21544903732166246,1.3312168841728447,0.9107445681201659,0.2881676375,0.6501765804809707
0.022,1.7879,1.0,2464.146080842173,0.21984974738890103,1.3307544513803515,0.9138681143816236,0.2881448,0.6511527196813861
0.0225,1.78734375,1.0,2485.407484618933,0.2242257729425846,1.3303002808410063,0.916816464471627,0.28812143749999997,0.6521100908046952
0.023,1.786775,1.0,2505.371469199506,0.2285772510065581,1.3298536390713622,0.9196023818003362,0.28809755,0.6530503086459806
0.0235,1.78619375,1.0,2524.122536859839,0.23290432347162138,1.3294135701388268,0.9222374579513197,0.28807313749999996,0.6539754458175774
0.024,1.7856,1.0,2541.7083598771405,0.23720712521776505,1.3289794890665239,0.9247323359849527,0.2880482,0.6548867849921203
0.0245,1.78499375,1.0,2558.178402448945,0.24148579112497975,1.328550810877578,0.927096742007837,0.2880227375,0.6557856016316516
0.025,1.784375,1.0,2573.583773608247,0.24574045607325606,1.3281269505951132,0.9293395767400018,0.28799675,0.6566731642001025
0.025500000000000002,1.78374375,1.0,2587.9770877261917,0.24997125494258457,1.3277073232422534,0.9314689968250843,0.2879702375,0.6575507343539453
0.026000000000000002,1.7831000000000001,1.0,2601.411618373937,0.25417832234495696,1.327291350492087,0.9334924880957056,0.2879432,0.6584195532304398
0.0265,1.78244375,1.0,2613.9337161279846,0.2583617897381517,1.326878529859382,0.9354169395204865,0.2879156375,0.6592806974393149
0.027,1.781775,1.0,2625.602589424171,0.2625217945103362,1.3264682494627338,0.9372486747295751,0.28788755,0.6601354658569458
0.0275,1.7810937500000001,1.0,2636.4549660228186,0.26665846606541366,1.3260601151039184,0.9389935484890815,0.2878589375,0.6609846981454703
0.028,1.7804,1.0,2646.5283426621186,0.2707719338072873,1.3256537325847115,0.9406569603523218,0.2878298,0.6618292297628993
0.0285,1.77969375,1.0,2655.8609186858016,0.2748623271398604,1.3252487077068893,0.9422438960194802,0.2878001375,0.6626698920121126
0.029,1.778975,1.0,2664.491533116409,0.2789297754670362,1.3248446462722276,0.9437589644410017,0.28776995,0.6635075120799467
0.029500000000000002,1.7782437500000001,1.0,2672.4596051733943,0.2829744081927179,1.3244411540825023,0.9452064311490693,0.2877392375,0.6643429130663712
0.03,1.7775,1.0,2679.7894432794756,0.2869963535867038,1.3240379803672153,0.9465902669799209,0.287708,0.6651766176005618
0.0305,1.77674375,1.0,2686.537828712893,0.2909957400064563,1.3236345804387017,0.9479141163545659,0.2876762375,0.6660097523732956
0.031,1.7759761220690184,1.0,2692.790683850361,0.2949726943180776,1.3232306543167078,0.9491813942506233,0.28764399712689875,0.6668429340242121
0.0315,1.7752064184569818,1.0,2698.9952920850355,0.2989273409866634,1.3228262982429697,0.9503953231948139,0.28761166957519324,0.6676759603403737
0.032,1.7744367148449451,1.0,2705.2435899665843,0.3028598044773094,1.322421608459224,0.9515589004360553,0.28757934202348767,0.668508630097471
0.0325,1.7736670112329087,1.0,2711.525151017712,0.30677020925511134,1.3220166812072076,0.9526749164487186,0.28754701447178216,0.6693407430621672
0.033,1.772897307620872,1.0,2717.829500334269,0.31065867978516487,1.3216116127286568,0.9537459717054223,0.28751468692007665,0.6701720999938536
0.0335,1.7721276040088354,1.0,2724.1473693106855,0.3145253382366292,1.3212064878454521,0.9547744899679379,0.2874823593683711,0.671002526039507
0.034,1.7713579003967987,1.0,2730.4640856474593,0.3183703097374194,1.3208014400956354,0.9557627404700416,0.28745003181666556,0.6718317475528268
0.0345,1.7705881967847623,1.0,2736.7732672759876,0.32219371439861144,1.3203965271451183,0.9567128341120946,0.28741770426496,0.6726596473002151
0.035,1.7698184931727257,1.0,2743.0685959746424,0.32599567226422904,1.3199918058160307,0.9576267452688465,0.2873853767132545,0.6734861103654199
0.035500000000000004,1.769048789560689,1.0,2749.3437249435287,0.3297763033782963,1.3195873329305026,0.9585063223069985,0.2873530491615489,0.6743110224182657
0.036000000000000004,1.7682790859486524,1.0,2755.5922790818818,0.33353572778483703,1.319183165310664,0.959353297078848,0.2873207216098434,0.6751342697138563
0.0365,1.767509382336616,1.0,2761.8122179573493,0.3372740573027143,1.3187793203567115,0.9601692877472463,0.2872883940581379,0.6759558192376056
0.037,1.7667396787245793,1.0,2767.9945054885898,0.340991419524497,1.318375878540602,0.9609558228164505,0.2872560665064323,0.6767755100876911
0.0375,1.7659699751125426,1.0,2774.133013632918,0.3446879376356377,1.3179728937641253,0.9617143342292577,0.2872237389547268,0.6775932360690953
0.038,1.765200271500506,1.0,2780.2265323194806,0.348363725299662,1.3175703754094048,0.962446161659802,0.28719141140302124,0.6784089817038574
0.0385,1.7644305678884695,1.0,2786.2738483364524,0.3520188961800952,1.3171683328585637,0.9631525653925429,0.2871590838513157,0.6792227316062479
0.039,1.7636608642764329,1.0,2792.273745428766,0.3556535639404629,1.3167667754937253,0.9638347318938186,0.28712675629961015,0.6800344704824867
0.0395,1.7628911606643962,1.0,2798.2250043984304,0.35926784224429054,1.316365712697013,0.964493778934699,0.28709442874790464,0.6808441831304561
0.04,1.7621214570523596,1.0,2804.126403206067,0.36286184475510364,1.3159651538505495,0.9651307603056872,0.2870621011961991,0.6816518544394088
0.0405,1.761351753440323,1.0,2809.97671707493,0.36643568513642766,1.3155651083364586,0.9657466701597942,0.28702977364449356,0.6824574693896658
0.041,1.7605820498282865,1.0,2815.774718596943,0.3699894770517881,1.3151655855368631,0.966342447016873,0.28699744609278804,0.6832610130523158
0.0415,1.7598123462162498,1.0,2821.519177839892,0.37352333416471045,1.3147665948338867,0.966918977458913,0.2869651185410825,0.6840624705889025
0.042,1.7590426426042132,1.0,2827.2088624577345,0.3770373701387202,1.3143681456096523,0.9674770995431016,0.28693279098937696,0.6848618272511111
0.0425,1.7582729389921767,1.0,2832.8444038573325,0.38053168173437735,1.3139702305968037,0.9680176018482571,0.2869004634376714,0.6856591017187178
0.043000000000000003,1.75750323538014,1.0,2838.425010792957,0.3840063962148876,1.3135728552547863,0.968541236710087,0.2868681358859659,0.686454287140819
0.043500000000000004,1.7567335317681034,1.0,2843.950290879601,0.38746163174528153,1.3131760214869268,0.9690487148204074,0.28683580833426037,0.6872473838189412
0.044,1.7559638281560668,1.0,2849.42095146959,0.3908974936426191,1.312779721422889,0.9695407068895823,0.2868034807825548,0.6880384115644771
0.0445,1.7551941245440303,1.0,2854.8377052274896,0.39431408722396055,1.3123839471923369,0.9700178489035357,0.2867711532308493,0.6888273901037478
0.045,1.7544244209319937,1.0,2860.2012700371633,0.3977115178063658,1.3119886909249339,0.9704807442630269,0.2867388256791437,0.6896143390782721
0.0455,1.753654717319957,1.0,2865.5123689111374,0.40108989070689494,1.3115939447503442,0.9709299657710153,0.2867064981274382,0.6903992780450238
0.046,1.7528850137079204,1.0,2870.7717299006017,0.40444931124260797,1.3111997007982314,0.971366057480275,0.28667417057573263,0.691182226476694
0.0465,1.752115310095884,1.0,2875.9800860073897,0.407789884730565,1.3108059511982595,0.9717895364123379,0.2866418430240271,0.6919632037619424
0.047,1.7513456064838473,1.0,2881.1381750967926,0.411111716487826,1.3104126880800921,0.9722008941578725,0.2866095154723216,0.6927422292056487
0.0475,1.7505759028718106,1.0,2886.246739811884,0.41441491183145107,1.310019903573393,0.9726005983677275,0.28657718792061604,0.6935193220291584
0.048,1.749806199259774,1.0,2891.3065274896826,0.4176995760785002,1.3096275898078262,0.9729890941430662,0.28654486036891047,0.6942945013705246
0.0485,1.7490364956477373,1.0,2896.318290078228,0.42096581454603355,1.3092357389130553,0.973366805332302,0.28651253281720496,0.6950677862847471
0.049,1.748266792035701,1.0,2901.282784054681,0.42421373255111106,1.3088443430187442,0.973734135741891,0.28648020526549944,0.695839195744006
0.0495,1.7474970884236642,1.0,2906.2007703457484,0.42744343541079277,1.3084533942545569,0.9740914702674421,0.2864478777137939,0.696608748637892
0.05,1.7467273848116276,1.0,2911.071536000662,0.43065495555980593,1.3080628977610849,0.9744391684193671,0.28641555016208836,0.6973764382112353
0.0505,1.7459576811995912,1.0,2915.8985562747694,0.4338484885324658,1.3076728218412519,0.9747775894709622,0.28638322261038285,0.6981423300390347
0.051000000000000004,1.7451879775875545,1.0,2920.6827064800427,0.4370241331480832,1.3072831577596982,0.9751070667801258,0.2863508950586773,0.6989064443789172
0.051500000000000004,1.7444182739755179,1.0,2925.4247665781704,0.44018198415743837,1.3068938976568891,0.975427918314086,0.28631856750697177,0.6996687996841928
0.052000000000000005,1.7436485703634812,1.0,2930.1255205338407,0.4433221363113117,1.30650503367329,0.9757404478733275,0.2862862399552662,0.7004294143269624
0.0525,1.7428788667514448,1.0,2934.7857562450336,0.44644468436048357,1.3061165579493663,0.9760449458459993,0.2862539124035607,0.7011883065983171
0.053,1.7421091631394081,1.0,2939.4062654746044,0.4495497230557343,1.3057284626255836,0.9763416899158484,0.2862215848518551,0.7019454947085367
0.0535,1.7413394595273715,1.0,2943.98784378352,0.45263734714784437,1.3053407398424073,0.9766309457269144,0.2861892573001496,0.702700996787281
0.054,1.7405697559153348,1.0,2948.5312904649822,0.45570765138759406,1.3049533817403027,0.9769129675079798,0.2861569297484441,0.7034548308837794
0.0545,1.7398000523032984,1.0,2953.0374084803307,0.4587607305257637,1.3045663804597354,0.9771879986595274,0.2861246021967385,0.7042070149670144
0.055,1.7390303486912617,1.0,2957.507004396316,0.46179667931313373,1.304179728141171,0.9774562723057548,0.286092274645033,0.7049575669259036
0.0555,1.738260645079225,1.0,2961.9408883232636,0.46481559250048443,1.3037934169250747,0.9777180118140051,0.28605994709332744,0.7057065045694764
0.056,1.7374909414671884,1.0,2966.3398738553933,0.4678175648385962,1.303407438951912,0.9779734312837861,0.2860276195416219,0.7064538456270467
0.0565,1.7367212378551518,1.0,2970.704778011622,0.4708026910782494,1.3030217863621483,0.9782227360073971,0.28599529198991636,0.707199607748382
0.057,1.7359515342431153,1.0,2975.0364211785845,0.47377106597022434,1.3026364512962492,0.9784661229040322,0.28596296443821084,0.7079438085038681
0.0575,1.7351818306310787,1.0,2979.335627054247,0.47672278426530146,1.3022514258946798,0.9787037809290892,0.28593063688650533,0.7086864653846712
0.058,1.734412127019042,1.0,2983.603222593358,0.47965794071426104,1.301866702297906,0.9789358914602861,0.28589830933479976,0.7094275958028935
0.0585,1.7336424234070056,1.0,2987.8400379545183,0.48257663006788354,1.301482272646393,0.9791626286620805,0.28586598178309425,0.7101672170917281
0.059000000000000004,1.732872719794969,1.0,2992.046906447723,0.48547894707694916,1.3010981290806065,0.9793841598297681,0.2858336542313887,0.7109053465056072
0.059500000000000004,1.7321030161829323,1.0,2996.22466448434,0.4883649864922385,1.3007142637410114,0.97960064571455,0.28580132667968317,0.711642001220349
0.06,1.7313333125708956,1.0,3000.374151527427,0.49123484306453163,1.3003306687680738,0.9798122408307579,0.2857689991279776,0.7123771983332958
0.0605,1.730563608958859,1.0,3004.4954749177655,0.49408858591498184,1.2999473426711496,0.98001909205751,0.2857366715762721,0.7131109426802167
0.061,1.7297939053468225,1.0,3008.5889595123335,0.4969262949679221,1.2995642820846551,0.9802213414574874,0.28570434402456657,0.7138432426629628
0.0615,1.7290242017347859,1.0,3012.6566830442443,0.49974811200636965,1.299181468490505,0.9804191296920193,0.285672016472861,0.714574135560794
0.062,1.7282544981227492,1.0,3016.6990917788903,0.5025541209321025,1.2987988975301625,0.9806125884127984,0.28563968892115543,0.715303631488391
0.0625,1.7274847945107128,1.0,3020.716633729434,0.5053444056468989,1.2984165648450916,0.980801844383485,0.2856073613694499,0.7160317405167578
0.063,1.7267150908986761,1.0,3024.709758633503,0.5081190500525367,1.298034466076756,0.9809870196977473,0.2855750338177444,0.7167584726732876
0.0635,1.7259453872866395,1.0,3028.678917930269,0.510878138050794,1.2976525968666195,0.9811682319860097,0.28554270626603884,0.7174838379418293
0.064,1.7251756836746028,1.0,3032.6245647386445,0.5136217535434489,1.2972709528561455,0.9813455946115791,0.2855103787143333,0.718207846262753
0.0645,1.7244059800625662,1.0,3036.5471538345455,0.5163499804322794,1.2968895296867982,0.9815192168567657,0.2854780511626278,0.7189305075330096
0.065,1.7236362764505297,1.0,3040.4471416296897,0.5190629026190637,1.296508323000041,0.981689204099577,0.28544572361092224,0.7196518316061971
0.0655,1.722866572838493,1.0,3044.324986150706,0.5217606040055799,1.2961273284373376,0.98185565798153,0.2854133960592167,0.7203718282926186
0.066,1.7220968692264564,1.0,3048.1811470180432,0.5244431684936058,1.2957465416401521,0.9820186765670857,0.28538106850751116,0.7210905073593423
0.0665,1.72132716561442,1.0,3052.016085425859,0.5271106799849197,1.295365958249948,0.982178354495184,0.28534874095580565,0.7218078785302615
0.067,1.7205574620023834,1.0,3055.8302641219757,0.5297632223812995,1.2949855739081888,0.9823347831233206,0.2853164134041001,0.7225239514861496
0.0675,1.7197877583903467,1.0,3059.62414738875,0.5324008795845234,1.2946053842563385,0.9824880506645853,0.28528408585239456,0.7232387358647167
0.068,1.71901805477831,1.0,3063.398201023872,0.5350237354963693,1.2942253849358607,0.9826382423180504,0.28525175830068905,0.7239522412606652
0.0685,1.7182483511662734,1.0,3067.1528923214864,0.5376318740186155,1.2938455715882193,0.982785440392879,0.2852194307489835,0.724664477225742
0.069,1.717478647554237,1.0,3070.888690054703,0.5402253790530398,1.293465939854878,0.9829297244264924,0.28518710319727797,0.7253754532687919
0.0695,1.7167089439422003,1.0,3074.606064457109,0.5428043345014204,1.2930864853773005,0.9830711712971242,0.2851547756455724,0.726085178855808
0.07,1.7159392403301637,1.0,3078.305487205948,0.5453688242655352,1.2927072037969505,0.9832098553310622,0.2851224480938669,0.7267936634099825
0.07050000000000001,1.7151695367181272,1.0,3081.9874314047843,0.5479189322471626,1.2923280907552916,0.983345848404863,0.2850901205421613,0.7275009163117537
0.07100000000000001,1.7143998331060906,1.0,3085.652371567424,0.5504547423480805,1.2919491418937876,0.983479220042808,0.2850577929904558,0.7282069468988555
