Time [s],Phi [rad],STIM [ ],Fsee [N],Gamma [ ],Lcerel [ ],q [ ],Lmtc [m],fisomrel [ ]
0.0,1.8,1.0,17.96705917990832,1.0002134682511088e-05,1.3793397573096662,0.005000026663108299,0.288653,0.5411395042227154
0.0005,1.79999375,1.0,18.276400971501577,0.005619155339411446,1.3793024259096975,0.012940520641715254,0.2886527375,0.5412298140912577
0.001,1.799975,1.0,21.61802713398429,0.011196845629584068,1.378938338313023,0.03560859009049931,0.28865195,0.5421101267747608
0.0015,1.79994375,1.0,31.06879400081153,0.01674324948813529,1.3780462413862862,0.07060172441458537,0.2886506375,0.544263518411039
0.002,1.7999,1.0,53.58168248364145,0.022258542406349148,1.3763681774469636,0.11471785965158646,0.2886488,0.5483003667259276
0.0025,1.79984375,1.0,97.117870345155,0.027742898891421727,1.3739352186904064,0.16457469864336882,0.28864643749999996,0.5541213399966772
0.003,1.7997750000000001,1.0,160.95698383432656,0.03319649247417917,1.3712143880366652,0.2172802523196706,0.28864354999999997,0.5605863460285847
0.0035,1.79969375,1.0,237.6821076840721,0.038619495708668315,1.3685847719312945,0.27061268666670657,0.2886401375,0.5667897509577668
0.004,1.7996,1.0,321.4655616623494,0.04401208018293918,1.3661561244359073,0.3229156054026051,0.2886362,0.5724798869198865
0.0045000000000000005,1.7994937500000001,1.0,409.2665860031012,0.04937441652422932,1.363922841508569,0.37303432093694733,0.2886317375,0.5776790989423758
0.005,1.799375,1.0,499.4123767508307,0.05470667439005468,1.361858366304343,0.4202472862543312,0.28862675,0.5824570240291832
0.0055,1.79924375,1.0,590.7893324383784,0.06000902251567265,1.3599388562304047,0.46417353709230486,0.2886212375,0.5868750630597834
0.006,1.7991000000000001,1.0,682.5170658651961,0.06528162865724227,1.3581464336966054,0.5046798146114856,0.2886152,0.5909793750969485
0.006500000000000001,1.79894375,1.0,773.880599913918,0.07052465964705816,1.3564672648488676,0.5418006226084836,0.2886086375,0.5948057687856101
0.007,1.798775,1.0,864.2849674164376,0.07573828137869691,1.3548904086262397,0.5756766588155516,0.28860155,0.5983826462535098
0.0075,1.79859375,1.0,953.241644929567,0.08092265881471589,1.3534068033467768,0.606509813198877,0.2885939375,0.6017335183297599
0.008,1.7984,1.0,1040.3563605962538,0.08607795597085101,1.3520086771744753,0.6345319717508934,0.2885858,0.6048784795723089
0.0085,1.79819375,1.0,1125.3183500583275,0.0912043360497674,1.3506891831384762,0.6599843092767902,0.2885771375,0.6078351301966465
0.009000000000000001,1.797975,1.0,1207.8780982519818,0.09630196094490583,1.349442336780737,0.6831042779626278,0.28856795,0.6106187922998021
0.0095,1.79774375,1.0,1287.8726339610034,0.10137099249597938,1.348262382791122,0.7041175422532251,0.2885582375,0.6132439819280933
0.01,1.7975,1.0,1365.1659150429064,0.10641159093525962,1.347144399857089,0.723234168764302,0.288548,0.6157231047444566
0.0105,1.79724375,1.0,1439.6588638191229,0.11142391527177657,1.346083954339634,0.7406466039927573,0.2885372375,0.6180672721576601
0.011,1.796975,1.0,1511.3068658211698,0.11640812413150983,1.3450767411304283,0.7565291616699599,0.28852595000000003,0.6202871260548577
0.0115,1.79669375,1.0,1580.1103313657193,0.12136437606410405,1.3441186106610705,0.7710386176834904,0.2885141375,0.6223927990966025
0.012,1.7964,1.0,1646.0648699505807,0.12629282756008295,1.343206072967366,0.7843155050134561,0.28850180000000003,0.6243928299691295
0.0125,1.79609375,1.0,1709.178005401547,0.1311936339339267,1.3423359884942432,0.7964852664092075,0.2884889375,0.6262948692017519
0.013000000000000001,1.7957750000000001,1.0,1769.4931749383077,0.13606695044987177,1.3415052237957106,0.8076595158638693,0.28847555,0.6281064480875052
0.0135,1.79544375,1.0,1827.0730430057479,0.14091293139602803,1.340710800448019,0.8179375106643841,0.2884616375,0.6298346634504788
0.014,1.7951000000000001,1.0,1881.9862118368383,0.14573173106846166,1.3399499961198609,0.8274075258268719,0.2884472,0.6314859698281461
0.0145,1.79474375,1.0,1934.2856000098668,0.15052350085123978,1.3392205317050074,0.8361481435755991,0.2884322375,0.6330657872122833
0.015,1.794375,1.0,1984.045102256868,0.1552883921284296,1.3385201280972305,0.8442292120668712,0.28841675,0.6345794734471768
0.0155,1.79399375,1.0,2031.3472365288308,0.16002655545026864,1.3378466172616272,0.8517129035659152,0.2884007375,0.6360320893012614
0.016,1.7936,1.0,2076.2878148996333,0.16473814208457718,1.337197869833181,0.8586545979214063,0.2883842,0.637428560522848
0.0165,1.7931937500000001,1.0,2118.9531433407974,0.16942330164618377,1.336572012776128,0.8651037498727214,0.2883671375,0.6387732149739347
0.017,1.792775,1.0,2159.4096597696034,0.17408218096505093,1.3359675090383036,0.8711046084330145,0.28834955,0.6400696201230783
0.0175,1.7923437500000001,1.0,2197.7345021224833,0.1787149268711412,1.3353828215675427,0.8766967346400104,0.2883314375,0.6413213105784241
0.018000000000000002,1.7919,1.0,2234.0146144703476,0.18332168619441716,1.3348164133116804,0.8819155528920029,0.2883128,0.6425317901055548
0.0185,1.79144375,1.0,2268.3371761901903,0.18790260476155787,1.3342668342575361,0.8867928558999046,0.2882936375,0.6437043479446585
0.019,1.790975,1.0,2300.794116935362,0.19245782893135152,1.3337326658371012,0.8913572115456986,0.28827395,0.6448421803356562
0.0195,1.79049375,1.0,2331.4642882880885,0.19698750297403333,1.3332126883533157,0.8956343708470742,0.2882537375,0.6459480367358293
0.02,1.79,1.0,2360.4139887805472,0.2014917688800014,1.3327058634685212,0.8996475810725362,0.288233,0.6470242615231689
0.0205,1.78949375,1.0,2387.71456999481,0.2059707686396538,1.3322111528450593,0.9034178253142165,0.2882117375,0.6480731821599384
0.021,1.788975,1.0,2413.4420157624504,0.2104246442433887,1.3317275181452717,0.9069640738164154,0.28818995000000003,0.6490971100292681
0.021500000000000002,1.78844375,1.0,2437.6689022989594,0.2148535362705894,1.331253994544093,0.9103035193886366,0.2881676375,0.6500981859010904
0.022,1.7879,1.0,2460.4729859576655,0.21925758679791899,1.33078960323407,0.9134517531748965,0.2881448,0.6510785663018066
0.0225,1.78734375,1.0,2481.921214699548,0.2236369356506435,1.3303335010195096,0.9164229634054654,0.28812143749999997,0.6520401087506175
0.023,1.786775,1.0,2502.0689426214394,0.2279917197965322,1.3298849820903629,0.9192300823302441,0.28809755,0.6529843705077838
0.0235,1.78619375,1.0,2520.97393000713,0.23232207620335454,1.3294433406365804,0.9218848918173314,0.28807313749999996,0.653912899586129
0.024,1.7856,1.0,2538.6961418399874,0.2366281418388798,1.3290078708481134,0.9243981415745849,0.2880482,0.6548272350765023
0.0245,1.78499375,1.0,2555.2975573601107,0.24091005367087737,1.3285778669149126,0.9267796537982224,0.2880227375,0.6557289074414732
0.025,1.784375,1.0,2570.829823948579,0.24516794543813186,1.3281527369793744,0.9290384339821006,0.28799675,0.6566192002963824
0.025500000000000002,1.78374375,1.0,2585.359054239726,0.24940195651182712,1.327731768365881,0.9311827158569295,0.2879702375,0.6574996428691728
0.026000000000000002,1.7831000000000001,1.0,2598.930651479781,0.2536122198878204,1.327314455567648,0.9332200849024219,0.2879432,0.6583713239045097
0.0265,1.78244375,1.0,2611.5860905255195,0.2577988670370615,1.3269003404022255,0.935157516428174,0.2879156375,0.6592352278217766
0.027,1.781775,1.0,2623.367863222032,0.2619620294305003,1.3264889646871634,0.9370014265241448,0.28788755,0.6600923339843884
0.0275,1.7810937500000001,1.0,2634.3193908995295,0.26610183853908664,1.326079870240011,0.9387577243439698,0.2878589375,0.6609436167865358
0.028,1.7804,1.0,2644.484941524541,0.2702184258337703,1.325672598878318,0.9404318588650328,0.2878298,0.6617900457265375
0.0285,1.77969375,1.0,2653.9083891314212,0.27431192222227974,1.3252667031345917,0.9420288620882524,0.2878001375,0.6626325632396473
0.029,1.778975,1.0,2662.6255960684766,0.27838245469594247,1.3248618155982455,0.9435533949187841,0.28776995,0.6634719412187869
0.029500000000000002,1.7782437500000001,1.0,2670.6873728036257,0.28243015920543524,1.3244574367099482,0.9450097554735052,0.2877392375,0.6643092211849808
0.03,1.7775,1.0,2678.1220426646473,0.28645516123272224,1.3240532787164578,0.9464019502258363,0.287708,0.6651450017637555
0.0305,1.77674375,1.0,2684.9583397538076,0.2904575862597677,1.3236490538645322,0.947733694561357,0.2876762375,0.6659798786115851
0.031,1.775975,1.0,2691.2253724407,0.2944375597685358,1.3232444744009293,0.9490084375886095,0.28764395,0.6668144444173054
0.0315,1.7751937500000001,1.0,2696.952588690954,0.2983952072409907,1.322839252572407,0.9502293845440033,0.2876111375,0.6676492888982448
0.032,1.7744,1.0,2702.169743230951,0.30233065415909677,1.3224331006257235,0.9513995170501284,0.2875778,0.668484998791078
0.0325,1.77359375,1.0,2706.9068665482596,0.3062440260048181,1.3220257308076366,0.9525216114562647,0.2875439375,0.6693221578373965
0.033,1.772775,1.0,2711.1869049873762,0.310135443678352,1.3216169222231848,0.9535982619813039,0.28750955,0.6701612096291004
0.0335,1.7719437500000002,1.0,2715.0387446655977,0.3140050330376863,1.3212064016518428,0.9546318841717744,0.2874746375,0.67100270260802
0.034,1.7711000000000001,1.0,2718.496288483549,0.3178529233258474,1.3207938519373197,0.9556247295684598,0.2874392,0.6718472721913809
0.0345,1.7702437500000001,1.0,2721.57721546668,0.3216792332253417,1.320379105253056,0.9565789161957584,0.2874032375,0.6726952452718471
0.035,1.7693750000000001,1.0,2724.2993281085483,0.3254840814186756,1.3199619937724925,0.9574964252527186,0.28736675,0.6735469468786082
0.035500000000000004,1.76849375,1.0,2726.680539853007,0.3292675865883553,1.3195423496690697,0.9583791115364608,0.2873297375,0.6744027001529656
0.036000000000000004,1.7676,1.0,2728.7388632000116,0.3330298674168872,1.3191200051162282,0.9592287129569611,0.2872922,0.6752628263221254
0.0365,1.76669375,1.0,2730.4923984362067,0.33677104258677765,1.318694792287409,0.9600468592317923,0.2872541375,0.6761276446711901
0.037,1.765775,1.0,2731.9593229901134,0.340491230780533,1.3182665433560528,0.9608350798399158,0.28721555,0.6769974725133603
0.0375,1.76484375,1.0,2733.1578814117024,0.3441905506806596,1.3178350904955998,0.9615948113052268,0.2871764375,0.6778726251583351
0.038,1.7639,1.0,2734.106375976076,0.3478691209696638,1.317400265879491,0.962327403873134,0.28713679999999997,0.6787534158789172
0.0385,1.76294375,1.0,2734.8185914413843,0.35152705892180897,1.3169619431482653,0.963034131267143,0.28709663750000003,0.6796400720525377
0.039,1.761975,1.0,2735.3108448191992,0.3551644796536264,1.316519973305155,0.963716189920941,0.28705595,0.6805328651113012
0.0395,1.7609937500000001,1.0,2735.5968116140934,0.3587814974774579,1.3160742316440754,0.964374708945009,0.2870147375,0.6814320155950488
0.04,1.76,1.0,2735.6878899022763,0.3623782263032894,1.315624614384201,0.965010754494536,0.286973,0.6823377002385984
0.0405,1.7589937500000001,1.0,2735.5955001875877,0.365954780041107,1.3151710177447054,0.9656253322483789,0.2869307375,0.6832500943041029
0.041,1.757975,1.0,2735.3164429812,0.3695112712414095,1.3147134708611792,0.9662194027531662,0.28688795,0.6841691047784111
0.0415,1.75694375,1.0,2734.893391598203,0.3730478146882489,1.3142515864898459,0.9667938380459822,0.2868446375,0.6850954731779813
0.042,1.755905708474351,1.0,2734.595111977603,0.37656452171395216,1.3137855021909708,0.9673495059820747,0.28680103975592275,0.6860288858889039
0.0425,1.754867654681229,1.0,2734.726708202872,0.38006150252497084,1.3133155086730368,0.9678872396211531,0.28675744149661164,0.6869687245693756
0.043000000000000003,1.7538296008881071,1.0,2735.2568051877593,0.38353886732775655,1.3128418966445272,0.9684078270553499,0.2867138432373005,0.6879143740556599
0.043500000000000004,1.7527915470949853,1.0,2736.153497274932,0.3869967263287608,1.3123649568139257,0.9689120142969853,0.2866702449779894,0.6888652224318697
0.044,1.7517534933018633,1.0,2737.386270202191,0.3904351892481262,1.3118849677793871,0.9694005069240759,0.28662664671867827,0.6898206851825595
0.0445,1.7507154395087414,1.0,2738.925772663976,0.3938543651669609,1.311402197932447,0.9698739727642007,0.2865830484593671,0.6907802012845697
0.045,1.7496773857156194,1.0,2740.74205769053,0.3972543636644952,1.310916921264266,0.9703330456338755,0.286539450200056,0.6917432017587699
0.0455,1.7486393319224975,1.0,2742.8149031649905,0.40063529100745193,1.310429323630571,0.9707783198079207,0.2864958519407449,0.6927092953771243
0.046,1.7476012781293755,1.0,2745.124093804228,0.40399725346255383,1.3099395908870897,0.9712103595395492,0.2864522536814338,0.6936780931146157
0.0465,1.7465632243362537,1.0,2747.649411977766,0.40734035729652357,1.3094479088895492,0.971629700869648,0.2864086554221227,0.6946492081756546
0.047,1.7455251705431316,1.0,2750.370629292425,0.41066470877608385,1.3089544634936765,0.9720368533105607,0.2863650571628115,0.6956222560182861
0.0475,1.7444871167500098,1.0,2753.2764788158483,0.4139704083919941,1.308459359284688,0.9724322948594113,0.2863214589035004,0.6965970142528053
0.048,1.743449062956888,1.0,2756.3387793445004,0.41725756917710827,1.3079628537935841,0.9728164927572978,0.2862778606441893,0.6975729613626005
0.0485,1.742411009163766,1.0,2759.5429622638535,0.4205262954690097,1.3074650810551065,0.9731898820850142,0.28623426238487815,0.698549821211023
0.049,1.741372955370644,1.0,2762.879207675188,0.423776688424383,1.3069661319939818,0.9735528739156655,0.28619066412556704,0.6995274037265731
0.0495,1.740334901577522,1.0,2766.3376810634286,0.4270088491999126,1.3064660975349367,0.9739058600174553,0.28614706586625593,0.7005055199671768
0.05,1.7392968477844002,1.0,2769.9085310176642,0.4302228789522831,1.3059650686026973,0.9742492139376002,0.28610346760694483,0.7014839821267433
0.0505,1.7382587939912781,1.0,2773.581887134371,0.43341887883817903,1.3054631361219906,0.9745832920160183,0.28605986934763367,0.7024626035411934
0.051000000000000004,1.7372207401981563,1.0,2777.347858104795,0.4365969500142849,1.3049603910175427,0.9749084343339297,0.28601627108832256,0.7034411986939652
0.051500000000000004,1.7361826864050343,1.0,2781.196529984508,0.4397571936372853,1.3044569242140802,0.9752249656020839,0.28597267282901145,0.704419583220988
0.052000000000000005,1.7351446326119124,1.0,2785.1179646471205,0.4428997108638647,1.3039528266363296,0.9755331959929653,0.2859290745697003,0.7053975739151319
0.0525,1.7341065788187906,1.0,2789.1064219746604,0.44602459651028614,1.303448151230938,0.9758334188570097,0.2858854763103892,0.7063750622274421
0.053,1.7330685250256685,1.0,2793.153384852438,0.4491319531398466,1.3029429757669764,0.9761259170270179,0.2858418780510781,0.7073518923260497
0.0535,1.7320304712325467,1.0,2797.248030958224,0.4522218871777384,1.3024373985030093,0.9764109626715753,0.285798279791767,0.7083278698556503
0.054,1.7309924174394247,1.0,2801.3866988683394,0.45529449341691064,1.3019314531721056,0.9766888111056914,0.28575468153245587,0.7093029259737903
0.0545,1.7299543636463028,1.0,2805.565717004639,0.4583498666503122,1.3014251735073337,0.9769597067510685,0.2857110832731447,0.7102769922706436
0.055,1.7289163098531808,1.0,2809.7814033721697,0.4613881016708921,1.3009185932417624,0.977223883693247,0.2856674850138336,0.7112500007697664
0.0555,1.727878256060059,1.0,2814.0300653213067,0.46440929327159947,1.3004117461084606,0.9774815662057783,0.2856238867545225,0.7122218839287814
0.056,1.7268402022669371,1.0,2818.307999335673,0.46741353624538323,1.2999046658404971,0.9777329692436374,0.28558028849521133,0.7131925746399865
0.0565,1.725802148473815,1.0,2822.6114908455274,0.4704009253851924,1.299397386170941,0.9779782989079151,0.2855366902359002,0.7141620062308944
0.057,1.7247640946806932,1.0,2826.9368140653855,0.47337155548397597,1.2988899408328605,0.9782177528836855,0.2854930919765891,0.7151301124646976
0.0575,1.7237260408875712,1.0,2831.280231858027,0.47632552133468303,1.2983823635593246,0.9784515208528034,0.285449493717278,0.7160968275406603
0.058,1.7226879870944494,1.0,2835.637995622942,0.4792629177302625,1.297874688083402,0.9786797848832538,0.28540589545796685,0.7170620860944388
0.0585,1.7216499333013273,1.0,2840.0065035445555,0.4821838387225393,1.297366946727242,0.9789027196550666,0.28536229719865575,0.7180258258740997
0.059000000000000004,1.7206118795082055,1.0,2844.3879737438588,0.48508835502195036,1.2968591198922828,0.9791204881442312,0.28531869893934464,0.7189880833443217
0.059500000000000004,1.7195738257150834,1.0,2848.7735165665067,0.48797659298101476,1.2963512868698468,0.9793332569725041,0.2852751006800335,0.7199487078143679
0.06,1.7185357719219616,1.0,2853.1621457856972,0.49084864003594886,1.2958434564422252,0.9795411792681573,0.28523150242072237,0.7209076826540728
0.0605,1.7174977181288398,1.0,2857.5528721345736,0.49370458362296904,1.2953356373917086,0.9797444022784074,0.28518790416141127,0.7218649913470445
0.061,1.7164596643357177,1.0,2861.9447033076217,0.4965445111782916,1.2948278385005882,0.9799430676408988,0.28514430590210016,0.7228206174906603
0.0615,1.715421610542596,1.0,2866.336643963872,0.49936851013813294,1.294320068551155,0.9801373116406517,0.28510070764278905,0.7237745447960571
0.062,1.7143835567494738,1.0,2870.7276957315457,0.5021766679387094,1.2938123363256995,0.9803272654533617,0.2850571093834779,0.7247267570881188
0.0625,1.713345502956352,1.0,2875.1168572148486,0.5049690720162372,1.2933046506065131,0.9805130553758685,0.2850135111241668,0.7256772383054568
0.063,1.71230744916323,1.0,2879.5031240015987,0.5077458098069328,1.2927970201758865,0.9806948030445642,0.2849699128648556,0.7266259725003875
0.0635,1.7112693953701081,1.0,2883.885488673779,0.5105069687470126,1.2922894538161105,0.9808726256424598,0.2849263146055445,0.7275729438389025
0.064,1.710231341576986,1.0,2888.262940818615,0.5132526362726928,1.2917819603094765,0.9810466360955722,0.2848827163462334,0.728518136600635
0.0645,1.7091932877838643,1.0,2892.6344670422795,0.5159828998201899,1.291274548438275,0.9812169432592641,0.2848391180869223,0.7294615351788233
0.065,1.7081552339907424,1.0,2896.9990509847635,0.5186978468257201,1.2907672269847972,0.9813836520951159,0.2847955198276112,0.7304031240802661
0.0655,1.7071171801976204,1.0,2901.3556733365936,0.5213975647254997,1.2902600047313337,0.9815468638388766,0.28475192156830004,0.7313428879252746
0.066,1.7060791264044985,1.0,2905.7033118574946,0.5240821409557452,1.289752890460176,0.9817066761600071,0.28470832330898893,0.7322808114476187
0.0665,1.7050410726113765,1.0,2910.041786469293,0.526751647011424,1.289245885514316,0.9818631818820466,0.2846647250496778,0.7332168932175994
0.067,1.7040030188182547,1.0,2914.371191523503,0.5294061623964897,1.2887389888193874,0.982016471043221,0.28462112679036666,0.7341511362740998
0.0675,1.7029649650251326,1.0,2918.689552082035,0.5320458061267659,1.2882322174941487,0.9821666340403946,0.28457752853105556,0.7350835101989979
0.068,1.7019269112320108,1.0,2922.9967569473274,0.5346706573315609,1.287725572237181,0.9823137547910857,0.28453393027174445,0.7360140149259782
0.0685,1.7008888574388887,1.0,2927.292694792838,0.5372807951401831,1.2872190537470647,0.9824579143737335,0.28449033201243334,0.7369426503974514
0.069,1.699850803645767,1.0,2931.577254164691,0.5398762986819412,1.286712662722381,0.9825991911435707,0.28444673375312224,0.7378694165645477
0.0695,1.6988127498526449,1.0,2935.85032348375,0.5424572470861434,1.2862063998617108,0.982737660843,0.2844031354938111,0.7387943133871127
0.07,1.697774696059523,1.0,2940.111791047835,0.5450237194820984,1.2857002658636347,0.9828733967067727,0.28435953723449997,0.7397173408337003
0.07050000000000001,1.696736642266401,1.0,2944.361545033306,0.5475757949991145,1.2851942614267338,0.9830064695622477,0.2843159389751888,0.7406384988815684
0.07100000000000001,1.6956985884732791,1.0,2948.5994734974024,0.5501135527665002,1.2846883872495887,0.9831369479249903,0.2842723407158777,0.7415577875166717
0.07150000000000001,1.6946605346801573,1.0,2952.825464380123,0.552637071913564,1.2841826440307802,0.9832648980899603,0.2842287424565666,0.7424752067336571
0.07200000000000001,1.6936224808870353,1.0,2957.0394055061065,0.5551464315696143,1.2836770324688895,0.9833903842185185,0.2841851441972555,0.7433907565358565
