Time [s],Phi [rad],STIM [ ],Fsee [N],Gamma [ ],Lcerel [ ],q [ ],Lmtc [m],fisomrel [ ]
0.0,1.8,1.0,17.976457654360686,0.00010277439052904048,1.379338704500976,0.005002763812499288,0.288653,0.5411420512357183
0.0005,1.79999375,1.0,18.316570513544757,0.005711407216294643,1.3792979662627034,0.013200082145943745,0.2886527375,0.5412406020056668
0.001,1.799975,1.0,21.727199940643178,0.011288580046381587,1.3789272018685876,0.03609365793871263,0.28865195,0.5421370398088095
0.0015,1.79994375,1.0,31.32561694816297,0.016834469347422748,1.3780244058291797,0.07126465986102615,0.2886506375,0.5443161626195652
0.002,1.7999,1.0,54.132922608354896,0.02234925059427596,1.3763325071008645,0.11550232041180343,0.2886488,0.5483859824591127
0.0025,1.79984375,1.0,98.04232520706516,0.027833098278193424,1.3738907766814514,0.1654277179642733,0.28864643749999996,0.554227318598664
0.003,1.7997750000000001,1.0,162.15835784859627,0.033286185913696316,1.371169502898044,0.2181600212303576,0.28864354999999997,0.5606926024184278
0.0035,1.79969375,1.0,239.03868206853343,0.038708686038853295,1.3685430451984015,0.27148754848584633,0.2886401375,0.5668878311093398
0.004,1.7996,1.0,322.90831143671005,0.044100770225862354,1.3661179542125272,0.32376259490868264,0.2886362,0.5725690165919446
0.0045000000000000005,1.7994937500000001,1.0,410.7602201782926,0.049462609086295385,1.3638878121025475,0.3738382562122168,0.2886317375,0.5777603960561897
0.005,1.799375,1.0,500.93616785784235,0.05479437226269914,1.3618260104952578,0.42099937310086016,0.28862675,0.5825316904626455
0.0055,1.79924375,1.0,592.3262025197665,0.06009622847097355,1.359908848990861,0.46486981958054124,0.2886212375,0.5869439426596734
0.006,1.7991000000000001,1.0,684.0551776463575,0.0653683454555069,1.358118490631311,0.5053196744675374,0.2886152,0.5910431972830088
0.006500000000000001,1.79894375,1.0,775.4090826450839,0.07061089002305442,1.3564411855055976,0.5423856593655892,0.2886086375,0.5948650550872583
0.007,1.798775,1.0,865.7982904638849,0.07582402807685702,1.3548659742890934,0.5762097680661771,0.28860155,0.5984379473592236
0.0075,1.79859375,1.0,954.7339747999924,0.081007924575337,1.3533838587288343,0.6069946307389642,0.2885939375,0.6017852308352019
0.008,1.7984,1.0,1041.8115509330971,0.08616274330131654,1.3519872598937137,0.6349725351846923,0.2885858,0.6049265589047043
0.0085,1.79819375,1.0,1126.7415364322549,0.09128864788268791,1.3506690424548715,0.6603845016110765,0.2885771375,0.6078801743105342
0.009000000000000001,1.797975,1.0,1209.270666681345,0.0963858001903667,1.3494233142957954,0.6834678963163828,0.28856795,0.6106611843958603
0.0095,1.79774375,1.0,1289.2124799362432,0.10145436126159356,1.3482446575200555,0.7044483277909572,0.2885582375,0.613283349836541
0.01,1.7975,1.0,1366.4485253249948,0.10649449158701908,1.3471279187111496,0.7235354428144005,0.288548,0.615759592000209
0.0105,1.79724375,1.0,1440.9094884602205,0.11150635130035198,1.346068305206871,0.740921211420341,0.2885372375,0.6181018116429975
0.011,1.796975,1.0,1512.524804621378,0.11649009824116888,1.34506186640201,0.7567798377614291,0.28852595000000003,0.6203198608264077
0.0115,1.79669375,1.0,1581.2729874158838,0.1214458900466577,1.3441047234492296,0.7712679362958238,0.2885141375,0.6224232758288559
0.012,1.7964,1.0,1647.1645016077334,0.12637388355536708,1.343193204150336,0.7845256834596804,0.28850180000000003,0.6244209968910261
0.0125,1.79609375,1.0,1710.239728592362,0.1312742357081684,1.3423237947353115,0.7966781246449707,0.2884889375,0.6263214909375521
0.013000000000000001,1.7957750000000001,1.0,1770.5201722263662,0.13614710060901133,1.341493631505969,0.8078367793875467,0.28847555,0.6281316952833722
0.0135,1.79544375,1.0,1828.054852285446,0.14099263215617716,1.3406998941283355,0.8181007733437498,0.2884616375,0.629858361418817
0.014,1.7951000000000001,1.0,1882.9125429268652,0.145810983658999,1.3399398571935028,0.8275582002590576,0.2884472,0.6315079511838677
0.0145,1.79474375,1.0,1935.174825395196,0.15060230868240893,1.3392109313116798,0.8362873778726087,0.2884322375,0.6330865563732873
0.015,1.794375,1.0,1984.9117036991934,0.15536675879325543,1.3385108899772211,0.8443580457613644,0.28841675,0.6345994176238192
0.0155,1.79399375,1.0,2032.1879997549747,0.16010448371981068,1.3378377594983182,0.8518323249590856,0.2884007375,0.6360511742894022
0.016,1.7936,1.0,2077.084647507631,0.16481563319034676,1.3371895661831619,0.8587655348097207,0.2883842,0.6374464172742702
0.0165,1.7931937500000001,1.0,2119.6919679374255,0.16950035642554656,1.3365643914561633,0.8652070154869269,0.2883671375,0.6387895739915257
0.017,1.792775,1.0,2160.1016872275095,0.17415880233724135,1.3359604375896188,0.8712008553283922,0.28834955,0.6400847716026526
0.0175,1.7923437500000001,1.0,2198.4044843002866,0.1787911193066665,1.3353760353165198,0.8767865111593574,0.2883314375,0.6413358256867744
0.018000000000000002,1.7919,1.0,2234.668453176937,0.18339745250410744,1.3348098445542185,0.8819994023494062,0.2883128,0.6425458162933038
0.0185,1.79144375,1.0,2268.9699664987584,0.1879779470998496,1.3342605252200668,0.8868712942761845,0.2882936375,0.6437177974477204
0.019,1.790975,1.0,2301.392986613988,0.19253274826417852,1.3337267372314163,0.8914307215007207,0.28827395,0.6448547986507437
0.0195,1.79049375,1.0,2332.0182917265356,0.19706199987612183,1.3332072400703232,0.895703381560147,0.2882537375,0.645959614683412
0.02,1.79,1.0,2360.9366993578074,0.20156584715708994,1.3327007545316656,0.8997124255068343,0.288233,0.6470351018305498
0.0205,1.78949375,1.0,2388.2220196068233,0.20604443254817514,1.332206221492813,0.9034787998351589,0.2882117375,0.6480836301067222
0.021,1.788975,1.0,2413.9370380425225,0.21049789637313834,1.3317227332611814,0.9070214741600456,0.28818995000000003,0.6491072329009282
0.021500000000000002,1.78844375,1.0,2438.148468197688,0.2149263789557405,1.331249382144186,0.9103576256577752,0.2881676375,0.6501079299397163
0.022,1.7879,1.0,2460.9266248180697,0.2193300206197425,1.3307852604492425,0.9135028331459415,0.2881448,0.6510877279002768
0.0225,1.78734375,1.0,2482.3402220151206,0.22370896074186944,1.3303295071243604,0.9164712566697015,0.28812143749999997,0.652048522713575
0.023,1.786775,1.0,2502.457240420205,0.22806333864520925,1.3298812958315662,0.9192757850878743,0.28809755,0.6529921258306336
0.0235,1.78619375,1.0,2521.3484153299732,0.23239329407805234,1.329439798854189,0.9219281615789741,0.28807313749999996,0.6539203409786718
0.024,1.7856,1.0,2539.063857101842,0.2366989622180443,1.3290044052520105,0.9244391384486105,0.2880482,0.6548345067754173
0.0245,1.78499375,1.0,2555.6555330191572,0.2409804782428307,1.3285745040848127,0.926818540099641,0.2880227375,0.6557359542902405
0.025,1.784375,1.0,2571.177112289805,0.24523797733005714,1.3281494844123773,0.9290753558360232,0.28799675,0.6566260072700603
0.025500000000000002,1.78374375,1.0,2585.683819319979,0.24947159465736923,1.327728735294486,0.9312178222565071,0.2879702375,0.6575059823414438
0.026000000000000002,1.7831000000000001,1.0,2599.225339940057,0.25368146370565015,1.3273117105771108,0.9332535063102376,0.2879432,0.658377053951166
0.0265,1.78244375,1.0,2611.85386416049,0.25786771924408,1.326897852164406,0.9351893584374887,0.2879156375,0.6592404153389612
0.027,1.781775,1.0,2623.623911589959,0.26203049590737876,1.3264865907501258,0.9370317704450255,0.28788755,0.6600972769781885
0.0275,1.7810937500000001,1.0,2634.5723874571836,0.26616992335878725,1.3260775294775236,0.9387866535154461,0.2878589375,0.6609484845976874
0.028,1.7804,1.0,2644.736977418667,0.27028613126154616,1.325670271489853,0.9404594584496392,0.2878298,0.6617948796802471
0.0285,1.77969375,1.0,2654.1560802747035,0.27437924927889623,1.3252644199303674,0.9420552175628173,0.2878001375,0.6626372995132706
0.029,1.778975,1.0,2662.868744176978,0.2784494070740782,1.3248595779423205,0.9435785822627563,0.28776995,0.6634765772293924
0.029500000000000002,1.7782437500000001,1.0,2670.914606328098,0.2824967343103329,1.3244553486689654,0.9450338568022192,0.2877392375,0.6643135418370538
0.03,1.7775,1.0,2678.327200552435,0.2865213579316259,1.3240513961422773,0.9464250358257834,0.287708,0.6651488924051048
0.0305,1.77674375,1.0,2685.146980705933,0.29052340859294756,1.323647325055774,0.9477558174117496,0.2876762375,0.6659834470160781
0.031,1.775975,1.0,2691.4054165246225,0.2945030129302026,1.3232428262995009,0.9490296445018672,0.28764395,0.6668178419831337
0.0315,1.7751937500000001,1.0,2697.12861502614,0.29846029508380306,1.3228376429601034,0.950249722409751,0.2876111375,0.6676526029590715
0.032,1.7744,1.0,2702.342972002205,0.30239537919416093,1.322431518124227,0.9514190328369001,0.2875778,0.6684882529340124
0.0325,1.77359375,1.0,2707.0751444943,0.30630838940168825,1.3220241948785172,0.9525403522110871,0.2875439375,0.6693253122220753
0.033,1.772775,1.0,2711.352024732138,0.31019944984679715,1.3216154163096199,0.9536162683097692,0.28750955,0.6701642984438454
0.0335,1.7719437500000002,1.0,2715.200715536669,0.3140686846698995,1.3212049255041802,0.9546491953472277,0.2874746375,0.6710057265046365
0.034,1.7711000000000001,1.0,2718.639744370086,0.3179162097588039,1.3207925453583904,0.9556413944400559,0.2874392,0.6718499452885365
0.0345,1.7702437500000001,1.0,2721.7055558997044,0.32174215904658976,1.3203779370040283,0.9565949657487888,0.2874032375,0.6726976322737337
0.035,1.7693750000000001,1.0,2724.416867984626,0.3255466520423284,1.319960924371678,0.9575118877650439,0.28736675,0.6735491290663949
0.035500000000000004,1.76849375,1.0,2726.790597141656,0.3293298065306809,1.3195413487829284,0.9583940141978102,0.2873297375,0.6744047398532746
0.036000000000000004,1.7676,1.0,2728.84375568587,0.3330917402963084,1.319119051559369,0.9592430819610195,0.2872922,0.675264767002069
0.0365,1.76669375,1.0,2730.5934411662133,0.3368325711238718,1.3186938740225893,0.9600607198595289,0.2872541375,0.6761295110346748
0.037,1.765775,1.0,2732.056826359217,0.3405524167980324,1.318265657494178,0.9608484565351189,0.28721555,0.6769992705988475
0.0375,1.76484375,1.0,2733.251149820972,0.3442513951034511,1.3178342432957248,0.9616077277430886,0.2871764375,0.6778743424382461
0.038,1.7639,1.0,2734.1937069974174,0.3479296238247891,1.3173994727488185,0.9623398830226324,0.28713679999999997,0.6787550213608802
0.0385,1.76294375,1.0,2734.90184189295,0.35158722074670734,1.3169611871750488,0.9630461918176016,0.28709663750000003,0.6796416002059428
0.039,1.761975,1.0,2735.387131105394,0.3552242965635541,1.3165192806333992,0.9637278525984816,0.28705595,0.6805342633524092
0.0395,1.7609937500000001,1.0,2735.665181110479,0.3588409710774367,1.3160736108879683,0.9643859927760401,0.2870147375,0.6814332669012795
0.04,1.76,1.0,2735.754022958707,0.3624373666018818,1.315624013943568,0.9650216735935355,0.286973,0.6823389088716532
0.0405,1.7589937500000001,1.0,2735.6629497747163,0.3660135936171835,1.3151704053406523,0.965635900953824,0.2869307375,0.6832513252468396
0.041,1.757975,1.0,2735.401272439454,0.3695697626036356,1.3147127006196757,0.9662296243589553,0.28688795,0.6841706507291785
0.0415,1.75694375,1.0,2734.978316610564,0.3731059840415322,1.314250815321092,0.966803740656268,0.2868446375,0.6850970187182048
0.042,1.7559,1.0,2734.403419900868,0.3766223684111672,1.313784664985355,0.9673590974983268,0.28680079999999997,0.6860305612883562
0.0425,1.75484375,1.0,2733.685929214737,0.3801190261928346,1.313314165152919,0.9678964965412703,0.2867564375,0.686971409166229
0.043000000000000003,1.753775,1.0,2732.8351982424974,0.3835960678668283,1.3128392313642383,0.9684166964038213,0.28671155,0.6879196917073743
0.043500000000000004,1.75269375,1.0,2731.8605851139405,0.3870536039134423,1.3123597791597663,0.9689204154071024,0.28666613750000003,0.6888755368726467
0.044,1.7516,1.0,2730.7714502083877,0.39049174481297055,1.3118757240799577,0.9694083341135399,0.2866202,0.6898390712040884
0.0445,1.75049375,1.0,2729.5771541247823,0.393910601045707,1.3113869816652663,0.969881097681438,0.2865737375,0.6908104198003671
0.045,1.7493750000000001,1.0,2728.2842079538973,0.3973102767420077,1.3108934933478265,0.9703393191180427,0.28652675,0.6917896549553093
0.0455,1.74824375,1.0,2726.900099296325,0.40069088241458195,1.3103951916750252,0.9707835804412841,0.2864792375,0.6927768653859196
0.046,1.7471,1.0,2725.434235868892,0.4040525328478493,1.3098919917038374,0.971214433580858,0.2864312,0.6937721730798112
0.0465,1.7459437500000001,1.0,2723.8913673004067,0.4073953312945201,1.309383850820124,0.9716324044273145,0.28638263750000004,0.6947756149608137
0.047,1.744775,1.0,2722.276241350847,0.4107193810073046,1.3088707264097463,0.9720379928822733,0.28633355,0.6957872269359555
0.0475,1.74359375,1.0,2720.593603266466,0.414024785238913,1.3083525758585648,0.9724316743842005,0.28628393750000003,0.6968070438819772
0.048,1.7424,1.0,2718.8481951739727,0.41731164724205566,1.3078293565524408,0.9728139013308021,0.2862338,0.6978350996317292
0.0485,1.74119375,1.0,2717.0447555168553,0.4205800702694428,1.3073010258772353,0.9731851044059355,0.2861831375,0.6988714269604552
0.049,1.739975,1.0,2715.188018529959,0.42383015757378467,1.306767541218809,0.9735456938182747,0.28613195,0.6999160575719592
0.0495,1.73874375,1.0,2713.2827137557388,0.4270620124077916,1.3062288599630227,0.9738960604583476,0.2860802375,0.7009690220846537
0.05,1.7375,1.0,2711.33356560035,0.4302757380241738,1.3056849394957377,0.9742365769800267,0.286028,0.7020303500174974
0.0505,1.73624375,1.0,2709.345292929768,0.4334714376756416,1.305135737202815,0.9745675988120338,0.2859752375,0.7031000697758121
0.051000000000000004,1.734975,1.0,2707.322085174046,0.43664921361642506,1.3045812152482794,0.9748894653057966,0.28592195,0.7041781993554888
0.051500000000000004,1.73369375,1.0,2705.267226602891,0.4398091658846578,1.3040213440108888,0.9752025007031319,0.2858681375,0.7052647397506787
0.052000000000000005,1.7324,1.0,2703.183854714303,0.44295139428332536,1.303456095170661,0.9755070147302641,0.2858138,0.7063596884686694
0.0525,1.73109375,1.0,2701.0742715165106,0.4460759971876635,1.3028854480027692,0.9758033036466354,0.28575893750000003,0.7074630273857201
0.053,1.729775,1.0,2698.940775904367,0.4491830729729081,1.3023093817823852,0.9760916506360727,0.28570355000000003,0.7085747375202553
0.0535,1.72844375,1.0,2696.785663550654,0.4522727200142951,1.3017278757846824,0.9763723264935908,0.2856476375,0.709694799025712
0.054,1.7271,1.0,2694.611635829526,0.45534503666349835,1.3011409055429841,0.976645590039406,0.2855912,0.7108231983697434
0.0545,1.7257437500000001,1.0,2692.4245701486,0.45840012036678135,1.300548417486269,0.976911687117743,0.2855342375,0.711959976870215
0.055,1.724375,1.0,2690.2232311097005,0.46143806748804506,1.2999504230807113,0.9771708568815575,0.28547675,0.7131050500436935
0.0555,1.72299375,1.0,2688.0099709462097,0.46445897403445063,1.299346900951432,0.9774233264036944,0.2854187375,0.7142583956976198
0.056,1.7216,1.0,2685.7897170059414,0.46746293577381204,1.298737806092773,0.9776693118389759,0.2853602,0.7154200357489693
0.0565,1.72019375,1.0,2683.5621917870635,0.4704500476563435,1.2981231411384528,0.9779090230507982,0.28530113749999997,0.7165899002479021
0.057,1.718778056584788,1.0,2681.4717891087857,0.4734204041157069,1.2975029623701202,0.9781426642951571,0.2852416783765611,0.7177678169037081
0.0575,1.717361798130401,1.0,2679.9288847932944,0.47637409933157865,1.296877513270196,0.9783704421152087,0.28518219552147683,0.7189532592937009
0.058,1.7159455396760137,1.0,2678.9168634451853,0.4793112266224109,1.2962471971330611,0.9785925636424416,0.28512271266639255,0.7201454023941494
0.0585,1.7145292812216266,1.0,2678.4030564258055,0.48223187631202813,1.295612310964537,0.978809221559671,0.2850632298113083,0.7213436275708096
0.059000000000000004,1.7131130227672395,1.0,2678.338818392537,0.4851361429391409,1.2949732998185415,0.9790206094674535,0.28500374695622405,0.722547042073217
0.059500000000000004,1.7116967643128524,1.0,2678.6712865263257,0.48802412293858816,1.294330648584773,0.9792269157323824,0.2849442641011398,0.72375468527955
0.06,1.7102805058584651,1.0,2679.375973123232,0.4908959055701676,1.2936845825966474,0.9794283067602866,0.28488478124605554,0.724966090385947
0.0605,1.708864247404078,1.0,2680.428458643214,0.49375158009367714,1.2930353271875803,0.9796249425564331,0.28482529839097126,0.7261807940690936
0.061,1.707447988949691,1.0,2681.804375212724,0.4965912357689147,1.2923831076909875,0.9798169770270809,0.28476581553588703,0.7273983365336747
0.0615,1.7060317304953039,1.0,2683.479391253339,0.49941496185567796,1.2917281494402848,0.9800045582646788,0.28470633268080275,0.7286182615565908
0.062,1.7046154720409166,1.0,2685.429197236336,0.5022228476137649,1.2910706777688878,0.9801878288177023,0.2846468498257185,0.7298401165279346
0.0625,1.7031992135865295,1.0,2687.6294925625834,0.5050149823029733,1.2904109180102123,0.9803669259460688,0.28458736697063425,0.7310634524887301
0.063,1.7017829551321424,1.0,2690.055973568448,0.507791455183101,1.289749095497674,0.9805419818629909,0.28452788411554997,0.732287824165433
0.0635,1.7003666966777553,1.0,2692.687860153589,0.5105523537837628,1.289085403191126,0.9807131221826626,0.2844684012604657,0.733512849686939
0.064,1.698950438223368,1.0,2695.508609337114,0.513297765582505,1.2884199951455078,0.9808804660041767,0.28440891840538146,0.7347382219396215
0.0645,1.697534179768981,1.0,2698.496525946991,0.5160277810562912,1.2877530723833244,0.98104413072832,0.2843494355502972,0.7359635501720577
0.065,1.6961179213145938,1.0,2701.640624601844,0.5187424847426598,1.2870847377859491,0.9812042242690491,0.28428995269521296,0.73718862669124
0.0655,1.6947016628602065,1.0,2704.9299076287407,0.5214419611791488,1.286415094234755,0.9813608507263524,0.2842304698401287,0.7384132455181647
0.066,1.6932854044058194,1.0,2708.353361960151,0.5241262949032961,1.285744244611115,0.9815141105510915,0.2841709869850444,0.7396372023967581
0.0665,1.6918691459514323,1.0,2711.899956265382,0.5267955704526397,1.285072291796402,0.9816641007016069,0.28411150412996017,0.7408602948021272
0.067,1.6904528874970453,1.0,2715.5586383167906,0.5294498723647179,1.2843993386719892,0.9818109147925649,0.2840520212748759,0.7420823219481352
0.0675,1.689036629042658,1.0,2719.318332591066,0.5320892851770685,1.2837254881192495,0.9819546432364721,0.28399253841979166,0.7433030847943036
0.068,1.6876203705882709,1.0,2723.1679381042973,0.5347138934272297,1.2830508430195557,0.9820953733782753,0.2839330555647074,0.7445223860520371
0.0685,1.6862041121338838,1.0,2727.105274470802,0.537323772310734,1.2823754248846804,0.9822331851673846,0.2838735727096231,0.7457401767257533
0.069,1.6847878536794967,1.0,2731.112136011615,0.5399190175779516,1.2816994008217506,0.9823681640303276,0.2838140898545389,0.7469561466092688
0.0695,1.6833715952251094,1.0,2735.182891243417,0.5424997100569731,1.2810228232985357,0.9825003862762611,0.2837546069994546,0.7481701938307398
0.07,1.6819553367707223,1.0,2739.31307217356,0.5450659292103384,1.2803457340896702,0.9826299251175654,0.2836951241443703,0.7493822365361094
0.07050000000000001,1.6805390783163352,1.0,2743.498198760732,0.5476177545005877,1.279668174969788,0.9827568513695274,0.2836356412892861,0.7505921935875894
0.07100000000000001,1.6791228198619481,1.0,2747.7337784600795,0.5501552653902608,1.2789901877135237,0.982881233546101,0.2835761584342018,0.7517999845649643
0.07150000000000001,1.6777065614075608,1.0,2752.015305807715,0.5526785413418979,1.2783118140955112,0.9830031379512374,0.2835166755791175,0.7530055297667909
0.07200000000000001,1.6762903029531737,1.0,2756.338262043418,0.5551876618180388,1.2776330958903848,0.983122628766016,0.2834571927240333,0.7542087502114809
0.0725,1.6748740444987866,1.0,2760.6981147718734,0.5576827062812236,1.2769540748727788,0.9832397681317974,0.283397709868949,0.7554095676382757
0.073,1.6734577860443995,1.0,2765.0903176631787,0.5601637541939923,1.2762747928173275,0.9833546162296045,0.2833382270138648,0.7566079045081083
0.0735,1.6720415275900122,1.0,2769.5103101915342,0.5626308850188849,1.2755952914986648,0.9834672313559271,0.2832787441587805,0.7578036840043558
