Time [s],Phi [rad],STIM [ ],Fsee [N],Gamma [ ],Lcerel [ ],q [ ],Lmtc [m],fisomrel [ ]
0.0,1.8,1.0,17.96683783768951,1.5049473898485918e-05,1.3793397821075415,0.005000060168322355,0.288653,0.541139444230239
0.0005,1.79999375,1.0,18.277901127426617,0.005624174367047928,1.3793022592734299,0.012954539526279146,0.2886527375,0.541230217187729
0.001,1.799975,1.0,21.623301654739617,0.011201836504443565,1.3789377996268022,0.03563489765670387,0.28865195,0.5421114286160635
0.0015,1.79994375,1.0,31.08205568102219,0.01674821236813535,1.3780451116491774,0.07063773475589676,0.2886506375,0.5442662422135236
0.002,1.7999,1.0,53.61088577320477,0.022263477448512016,1.376366283133629,0.11476050739955011,0.2886488,0.5483049136485239
0.0025,1.79984375,1.0,97.16739702879283,0.02774780625190329,1.3739328324088045,0.16462109646638654,0.28864643749999996,0.5541270307612531
0.003,1.7997750000000001,1.0,161.02168020313252,0.033201372308247955,1.3712119666244056,0.21732811978721434,0.28864354999999997,0.5605920785549783
0.0035,1.79969375,1.0,237.7553487756925,0.038624348170723084,1.3685825160798892,0.2706602974240475,0.2886401375,0.5667950536996753
0.004,1.7996,1.0,321.5435692215128,0.04401690542651672,1.3661540584350576,0.32296170664283785,0.2886362,0.5724847113888281
0.0045000000000000005,1.7994937500000001,1.0,409.34742313470457,0.04937921470201499,1.3639209440439573,0.3730780838401948,0.2886317375,0.5776835028257492
0.005,1.799375,1.0,499.4949005240389,0.05471144565390406,1.3618566127514726,0.42028823021968226,0.28862675,0.5824610708164247
0.0055,1.79924375,1.0,590.8726344183542,0.06001376701642382,1.3599372287676001,0.46421144495923455,0.2886212375,0.5868787989384575
0.006,1.7991000000000001,1.0,682.6005088253123,0.0652863465450634,1.3581449169708926,0.5047146515856811,0.2886152,0.5909828394384964
0.006500000000000001,1.79894375,1.0,773.9656680531895,0.07052935107241326,1.3564658127192035,0.5418324524700772,0.2886086375,0.5948090700332835
0.007,1.798775,1.0,864.3703300535063,0.07574294648730037,1.354889029779494,0.5757056522669712,0.28860155,0.598385767034979
0.0075,1.79859375,1.0,953.326243012564,0.08092729775974877,1.353405502168629,0.6065361763531889,0.2885939375,0.6017364510106477
0.008,1.7984,1.0,1040.4377715826727,0.08608256890656459,1.3520074785839629,0.634555938271272,0.2885858,0.6048811703474519
0.0085,1.79819375,1.0,1125.3980340000978,0.09120892307633964,1.3506880551288671,0.660006078854546,0.2885771375,0.6078376530291221
0.009000000000000001,1.797975,1.0,1207.9625620363447,0.09630652242873158,1.3494411826931536,0.6831240088735919,0.28856795,0.6106213642793688
0.0095,1.79774375,1.0,1287.9515661845035,0.10137552833032172,1.34826133831479,0.7041355087081512,0.2885582375,0.6132463017703809
0.01,1.7975,1.0,1365.2253776730136,0.10641610067293758,1.3471436356095559,0.7232506379705547,0.288548,0.615724796733992
0.0105,1.79724375,1.0,1439.7240082310047,0.11142839991148762,1.3460831390163686,0.7406615712200916,0.2885372375,0.6180690717110233
0.011,1.796975,1.0,1511.3931059308302,0.11641258451315356,1.3450756876798764,0.7565426938126311,0.28852595000000003,0.6202894444268507
0.0115,1.79669375,1.0,1580.1912505979062,0.12136881135555118,1.3441176439651967,0.7710510065507424,0.2885141375,0.6223949206372517
0.012,1.7964,1.0,1646.12490826615,0.12629723731629625,1.3432053702374473,0.7843269457508889,0.28850180000000003,0.6243943681128084
0.0125,1.79609375,1.0,1709.223084548018,0.13119801853034652,1.3423354706888717,0.7964958256137686,0.2884889375,0.6262959997073618
0.013000000000000001,1.7957750000000001,1.0,1769.5475145336595,0.13607131104220535,1.3415046103501922,0.8076691728700016,0.28847555,0.6281077841503935
0.0135,1.79544375,1.0,1827.1352018710022,0.14091726824246475,1.3407101098762713,0.8179463621126951,0.2884616375,0.6298361639926632
0.014,1.7951000000000001,1.0,1882.0374930193186,0.1457360429934696,1.3399494347692082,0.8274157248424902,0.2884472,0.6314871868625505
0.0145,1.79474375,1.0,1934.3283912718002,0.15052778796995905,1.339220069664799,0.8361557437765937,0.2884322375,0.6330667867876563
0.015,1.794375,1.0,1984.0921528439449,0.15529265517881344,1.3385196264781132,0.8442362247262246,0.28841675,0.6345805564066287
0.0155,1.79399375,1.0,2031.4088169385225,0.16003079600528178,1.3378459684261672,0.8517193505314801,0.2884007375,0.6360334873028866
0.016,1.7936,1.0,2076.347209894329,0.16474235933080447,1.3371972508336178,0.8586605855901503,0.2883842,0.6374298916780938
0.0165,1.7931937500000001,1.0,2118.990341781104,0.16942749403682195,1.3365716290251226,0.8651093807267,0.2883671375,0.6387740386969873
0.017,1.792775,1.0,2159.4243145628398,0.17408634806095538,1.3359673592772743,0.8711099145565341,0.28834955,0.6400699410084659
0.0175,1.7923437500000001,1.0,2197.74578350874,0.17871907024439806,1.3353827072897937,0.8767016912666585,0.2883314375,0.6413215550094662
0.018000000000000002,1.7919,1.0,2234.043175207039,0.1833258079478592,1.3348161263576095,0.8819201358114134,0.2883128,0.6425324028408332
0.0185,1.79144375,1.0,2268.3830183654522,0.1879067053983405,1.3342663771729293,0.8867970971824228,0.2882936375,0.6437053223586894
0.019,1.790975,1.0,2300.839106599386,0.19246190682284386,1.3337322204279602,0.8913611834522035,0.28827395,0.644843128342549
0.0195,1.79049375,1.0,2331.4918978525056,0.19699155644837102,1.3332124168149102,0.8956381336373044,0.2882537375,0.645948613776679
0.02,1.79,1.0,2360.4256228578597,0.20149579811621454,1.3327057497517032,0.8996511485232387,0.288233,0.6470245028130008
0.0205,1.78949375,1.0,2387.7176849070147,0.20597477429921013,1.3322111225730084,0.9034211968743765,0.2882117375,0.648073246297135
0.021,1.788975,1.0,2413.452180271819,0.21042862888282982,1.3317274198902158,0.9069672334051969,0.28818995000000003,0.6490973178985346
0.021500000000000002,1.78844375,1.0,2437.6890270403487,0.21485750108304555,1.3312538009779344,0.9103064779441643,0.2881676375,0.650098594826757
0.022,1.7879,1.0,2460.491591548638,0.2192615301158292,1.330789425110773,0.9134545472334149,0.2881448,0.6510789420755239
0.0225,1.78734375,1.0,2481.926403026279,0.22364085519715274,1.3303334515633407,0.9164256263305673,0.28812143749999997,0.6520402129408485
0.023,1.786775,1.0,2502.0628839138244,0.2279956155429881,1.3298850396102464,0.9192326196911429,0.28809755,0.6529842494940885
0.0235,1.78619375,1.0,2520.9606418008675,0.23232594743999577,1.3294434663177268,0.9218873050151137,0.28807313749999996,0.6539126355247475
0.024,1.7856,1.0,2538.690914634813,0.23663199220484604,1.329007920114622,0.9244004150243417,0.2880482,0.6548271317023293
0.0245,1.78499375,1.0,2555.304215487703,0.24091388484180642,1.3285778043661864,0.9267817915320617,0.2880227375,0.6557290385136993
0.025,1.784375,1.0,2570.848900458314,0.24517175925476675,1.3281525583105307,0.9290404451483374,0.28799675,0.6566195742163704
0.025500000000000002,1.78374375,1.0,2585.374813029324,0.24940574934761686,1.3277316211857653,0.931184631646086,0.2879702375,0.657499950494101
0.026000000000000002,1.7831000000000001,1.0,2598.9331568225275,0.2536159890242466,1.3273144322300006,0.9332219254499207,0.2879432,0.6583713726210216
0.0265,1.78244375,1.0,2611.576375326164,0.2578026121885458,1.3269004306813472,0.9351592850735021,0.2879156375,0.659235039605707
0.027,1.781775,1.0,2623.3478929974185,0.2619657497190934,1.3264891498447695,0.937003124744312,0.28788755,0.660091948449106
0.0275,1.7810937500000001,1.0,2634.2984040962524,0.2661055368000792,1.3260800644181436,0.9387593449338395,0.2878589375,0.6609432129753167
0.028,1.7804,1.0,2644.4745160727753,0.270222106183283,1.3256726951530102,0.9404333925166217,0.2878298,0.661789845764587
0.0285,1.77969375,1.0,2653.9099293115596,0.27431558585126925,1.325266688936961,0.9420303125352861,0.2878001375,0.6626325926912826
0.029,1.778975,1.0,2662.6389547546964,0.27838610378660206,1.324861692657588,0.9435547679913652,0.28776995,0.6634721959299963
0.029500000000000002,1.7782437500000001,1.0,2670.696460416563,0.28243378797184576,1.3244573532024828,0.9450110737081898,0.2877392375,0.6643093939822682
0.03,1.7775,1.0,2678.1178206629,0.28645876638956447,1.3240533174592377,0.9464032267878018,0.287708,0.6651449216953524
0.0305,1.77674375,1.0,2684.9388682550057,0.2904611670223226,1.3236492323154443,0.9477349340415276,0.2876762375,0.6659795102730344
0.031,1.775975,1.0,2691.195849157896,0.29444111785268434,1.3232447446586946,0.94900963672783,0.28764395,0.6668138872784928
0.0315,1.7751937500000001,1.0,2696.9177049388586,0.29839874146474754,1.3228395715611212,0.9502305399534935,0.2876111375,0.6676486321244633
0.032,1.7744,1.0,2702.1407793120206,0.3023341700958622,1.322433365225548,0.951400620291517,0.2875778,0.6684844546853583
0.0325,1.77359375,1.0,2706.8880200113504,0.30624752607609196,1.3220259028292578,0.9525226613979457,0.2875439375,0.6693218045503873
0.033,1.772775,1.0,2711.18216693208,0.31013893139145,1.3216169654355423,0.9535992580705884,0.28750955,0.6701611209950038
0.0335,1.7719437500000002,1.0,2715.0461558679876,0.3140085080279496,1.321206334107693,0.9546328310037662,0.2874746375,0.6710028409728863
0.034,1.7711000000000001,1.0,2718.50309879969,0.31785637797160404,1.3207937899090016,0.955625640544293,0.2874392,0.6718473990938116
0.0345,1.7702437500000001,1.0,2721.576265246727,0.3216826632084266,1.3203791139027596,0.9565797992056819,0.2874032375,0.6726952275984777
0.035,1.7693750000000001,1.0,2724.289064681259,0.3254874857244305,1.319962087152259,0.9574972830657463,0.28736675,0.6735467563302622
0.035500000000000004,1.76849375,1.0,2726.6564991113414,0.32927096008270157,1.3195425683037578,0.9583799485595194,0.2873297375,0.6744022545976986
0.036000000000000004,1.7676,1.0,2728.703888424904,0.33303321106838635,1.3191203230690707,0.9592295279202558,0.2872922,0.6752621792228698
0.0365,1.76669375,1.0,2730.4600235229937,0.336774367348735,1.3186950865105262,0.9600476433192047,0.2872541375,0.6761270466646945
0.037,1.765775,1.0,2731.9379899829723,0.34049454373622134,1.3182667371781063,0.9608358284085585,0.28721555,0.6769970791007724
0.0375,1.76484375,1.0,2733.1509318997737,0.34419385504331923,1.317835153621793,0.9615955236230105,0.2871764375,0.6778724972009289
0.038,1.7639,1.0,2734.1120452301834,0.34787241608250236,1.3174002143915682,0.9623280828754864,0.28713679999999997,0.6787535201026358
0.0385,1.76294375,1.0,2734.834571464685,0.3515303416662447,1.3169617980374138,0.9630347797012454,0.28709663750000003,0.6796403653854902
0.039,1.761975,1.0,2735.3317916255387,0.3551677466070199,1.3165197831093118,0.9637168129013048,0.28705595,0.680533249044752
0.0395,1.7609937500000001,1.0,2735.6170205928875,0.3587847457173019,1.3160740481572444,0.964375311730956,0.2870147375,0.6814323854639412
0.04,1.76,1.0,2735.703601756904,0.3623814538095645,1.3156244717311933,0.9650113406745235,0.286973,0.682337987386496
0.0405,1.7589937500000001,1.0,2735.6049019977618,0.36595798569628146,1.3151709323811407,0.9656259038434124,0.2869307375,0.6832502658864874
0.041,1.757975,1.0,2735.334306992107,0.3695144561899267,1.3147133086570686,0.9662199490308304,0.28688795,0.6841694303383951
0.0415,1.75694375,1.0,2734.9038910842137,0.3730509778780189,1.3142514911477268,0.9667943720985867,0.2868446375,0.6850956642583872
0.042,1.7559,1.0,2734.320845787255,0.37656765575677326,1.3137854148852333,0.9673500222226118,0.28680079999999997,0.6860290606036417
0.0425,1.75484375,1.0,2733.603832021981,0.3800646165423151,1.3133149108194273,0.9678876974591987,0.2867564375,0.6869699191907344
0.043000000000000003,1.753775,1.0,2732.759542737405,0.3835419674499843,1.312839918629191,0.96840815869463,0.28671155,0.6879183205104629
0.043500000000000004,1.75269375,1.0,2731.794676002323,0.3869998156951208,1.3123603779934065,0.9689121263996645,0.28666613750000003,0.6888743439407404
0.044,1.7516,1.0,2730.715933497397,0.39043826849306457,1.3118762285909555,0.9694002831760007,0.2866202,0.6898380677292157
0.0445,1.75049375,1.0,2729.5300190894236,0.3938574330591555,1.3113874101007206,0.9698732761179294,0.2865737375,0.6908095689756559
0.045,1.7493750000000001,1.0,2728.243637485321,0.39725741660873354,1.3108938622015835,0.9703317190042736,0.28652675,0.6917889236141033
0.0455,1.74824375,1.0,2726.863492966992,0.40063832635713864,1.3103955245724264,0.9707761943343585,0.2864792375,0.6927762063947968
0.046,1.7471,1.0,2725.3962882069577,0.4040002695197107,1.3098923368921311,0.9712072552205123,0.2864312,0.6937714908658607
0.0465,1.7459437500000001,1.0,2723.848723164729,0.40734335331178967,1.30938423883958,0.9716254271484943,0.28638263750000004,0.6947748493547632
0.047,1.744775,1.0,2722.227494063592,0.4106676849487155,1.308871170093655,0.972031209616241,0.28633355,0.6957863529495422
0.0475,1.74359375,1.0,2720.5390474136516,0.4139733705335368,1.3083530725641779,0.9724250776764438,0.28628393750000003,0.6968060670925729
0.048,1.7424,1.0,2718.7863793773113,0.4172604974275422,1.3078299195374588,0.9728074831949589,0.2862338,0.6978339943799798
0.0485,1.74119375,1.0,2716.9813040251524,0.42052919876385186,1.3073016039511256,0.9731788564757985,0.2861831375,0.6988702940340101
0.049,1.739975,1.0,2715.127003592545,0.42377957394540305,1.306768097284415,0.9735396085636531,0.28613195,0.699914969669961
0.0495,1.73874375,1.0,2713.2266574717473,0.427011722375133,1.3062293710165638,0.9738901311572817,0.2860802375,0.7009680240012747
0.05,1.7375,1.0,2711.2834419339133,0.4302257434559791,1.3056853966268087,0.9742307976921287,0.286028,0.7020294588300722
0.0505,1.73624375,1.0,2709.3005298687476,0.4334217365908784,1.3051361455943864,0.9745619643529378,0.2859752375,0.7030992750376321
0.051000000000000004,1.734975,1.0,2707.2810905426204,0.43659980118276837,1.304581589398534,0.9748839710214837,0.28592195,0.7041774725748178
0.051500000000000004,1.73369375,1.0,2705.2282893746487,0.4397600366345862,1.304021699518488,0.9751971421641084,0.2858681375,0.7052640504524561
0.052000000000000005,1.7324,1.0,2703.1452877303254,0.4429025423492691,1.3034564474334849,0.975501787663388,0.2858138,0.7063590067316602
0.0525,1.73109375,1.0,2701.0352427340667,0.4460274177297544,1.3028858046227618,0.975798203597904,0.28575893750000003,0.7074623385141012
0.053,1.729775,1.0,2698.9013070989076,0.44913476217897946,1.3023097425655557,0.9760866729737749,0.28570355000000003,0.7085740419322305
0.0535,1.72844375,1.0,2696.746628974924,0.45222467509988146,1.3017282327411026,0.976367466411328,0.2856476375,0.7096941121394484
0.054,1.7271,1.0,2694.574351815196,0.45529725589539766,1.30114124662864,0.9766408427900168,0.2855912,0.7108225433002187
0.0545,1.7257437500000001,1.0,2692.3876142601675,0.45835260396846533,1.3005487557074042,0.9769070498544598,0.2855342375,0.7119593285801373
0.055,1.724375,1.0,2690.1841229655893,0.46139078825878843,1.2999507811458202,0.9771663248229316,0.28547675,0.7131043650829474
0.0555,1.72299375,1.0,2687.9696647019277,0.464411934217566,1.299347270138008,0.977418895932818,0.2854187375,0.7142576908830436
0.056,1.7216,1.0,2685.748282257636,0.46741615084059535,1.2987381857728024,0.9776649811839903,0.2853602,0.7154193123761945
0.0565,1.72019375,1.0,2683.5210693452,0.4704035286215385,1.2981235181130664,0.9779047893600729,0.28530113749999997,0.7165891835072966
0.057,1.718775,1.0,2681.289117906541,0.47337415805405764,1.2975032572216632,0.9781385206571414,0.28524155,0.7177672574697096
0.0575,1.71734375,1.0,2679.0535181002547,0.4763281296318147,1.2968773931614557,0.9783663671041819,0.2851814375,0.7189534867017171
0.058,1.7159,1.0,2676.8153582915897,0.4792655338484718,1.2962459159953075,0.9785885129596945,0.2851208,0.7201478228829759
0.0585,1.71444375,1.0,2674.5757250443535,0.48218646119769104,1.2956088157860814,0.9788051350859736,0.2850596375,0.7213502169309649
0.059000000000000004,1.7129750000000001,1.0,2672.3357031145574,0.48509100217313444,1.294966082596641,0.9790164033024843,0.28499795,0.7225606189974222
0.059500000000000004,1.71149375,1.0,2670.096375447024,0.4879792472684642,1.2943177064898488,0.9792224807196626,0.2849357375,0.7237789784647807
0.06,1.71,1.0,2667.8588231734784,0.4908512869773422,1.2936636775285686,0.9794235240543641,0.284873,0.725005243942592
0.0605,1.7084937500000001,1.0,2665.624125613567,0.49370721179343063,1.293003985775663,0.9796196839281042,0.2848097375,0.7262393632639512
0.061,1.7069750000000001,1.0,2663.393360277095,0.49654711221039155,1.2923386212939958,0.9798111051491569,0.28474595,0.727481283481906
0.0615,1.7054437500000001,1.0,2661.1676028693983,0.4993710787218871,1.2916675741464296,0.9799979269794987,0.2846816375,0.7287309508658705
0.062,1.7039,1.0,2658.9479272986387,0.5021792018215792,1.2909908343958276,0.9801802833875205,0.2846168,0.7299883108980231
0.0625,1.70234375,1.0,2656.7354056845134,0.50497157200313,1.2903083921050535,0.9803583032873723,0.2845514375,0.7312533082697018
0.063,1.7007750000000001,1.0,2654.5311083705483,0.5077482797602015,1.2896202373369698,0.9805321107657349,0.28448555,0.7325258868777974
0.0635,1.69919375,1.0,2652.3361039375104,0.510509415586456,1.2889263601544403,0.9807018252967749,0.28441913750000003,0.733805989821131
0.064,1.6976,1.0,2650.1498107198295,0.5132550481725713,1.288226765827233,0.9808675611291816,0.2843522,0.7350935314437926
0.0645,1.69599375,1.0,2647.9717196872616,0.5159852649440025,1.2875214589638357,0.9810294296708845,0.2842847375,0.7363884267707503
0.065,1.694375,1.0,2645.8044050202616,0.5187001871585785,1.2868104157155675,0.981187539262118,0.28421675,0.7376906423375744
0.0655,1.69274375,1.0,2643.647945450158,0.5213998960486155,1.28609363524315,0.9813419926297172,0.2841482375,0.739000101636988
0.066,1.6911,1.0,2641.5024196163563,0.5240844728464301,1.2853711167073045,0.9814928888304592,0.2840792,0.7403167275166644
0.0665,1.6894437500000001,1.0,2639.3679060677987,0.5267539987843385,1.2846428592687524,0.981640323406775,0.2840096375,0.7416404421789197
0.067,1.687775,1.0,2637.2444832644733,0.5294085550946572,1.283908862088215,0.9817843885347838,0.28393955,0.7429711671804046
0.0675,1.68609375,1.0,2635.132229579622,0.5320482230097026,1.283169124326414,0.9819251731650708,0.2838689375,0.744308823431798
0.068,1.6844000000000001,1.0,2633.0312233011828,0.5346730837617908,1.2824236451440707,0.9820627631566188,0.2837978,0.7456533311975002
0.0685,1.68269375,1.0,2630.94154263367,0.5372832185832386,1.2816724237019064,0.9821972414042672,0.2837261375,0.7470046100953245
0.069,1.680975,1.0,2628.863265700039,0.5398787087063621,1.2809154591606424,0.9823286879600558,0.28365395,0.7483625790961909
0.0695,1.67924375,1.0,2626.7964705433074,0.5424596353634777,1.2801527506810004,0.9824571801487847,0.28358123749999997,0.7497271565238177
0.07,1.6775,1.0,2624.741235128641,0.545026079786902,1.2793842974237017,0.9825827926781062,0.283508,0.7510982600544152
0.07050000000000001,1.67574375,1.0,2622.697637345075,0.5475781232089512,1.2786100985494675,0.9827055977434376,0.2834342375,0.7524758067163776
0.07100000000000001,1.673975,1.0,2620.6657550072077,0.5501158468619416,1.2778301532190195,0.9828256651279775,0.28335995,0.753859712889975
0.07150000000000001,1.67219375,1.0,2618.645665857344,0.5526393319781897,1.277044460593079,0.9829430622980794,0.2832851375,0.7552498943070467
0.07200000000000001,1.6704,1.0,2616.637447567411,0.5551486597900118,1.2762530198323674,0.9830578544942316,0.2832098,0.7566462660506941
0.0725,1.66859375,1.0,2614.6411777405533,0.5576439115297244,1.275455830097606,0.983170104817871,0.2831339375,0.7580487425549708
0.073,1.6667750000000001,1.0,2612.6569339133393,0.5601251684296438,1.2746528905495165,0.9832798743142478,0.28305755,0.759457237604577
0.0735,1.66494375,1.0,2610.6847935576725,0.5625925117220865,1.2738442003488197,0.9833872220515464,0.2829806375,0.7608716643345519
0.074,1.6631,1.0,2608.721915442315,0.5650459849181898,1.2730297857927428,0.9834922042397675,0.2829032,0.7622918879782173
0.0745,1.6612437500000001,1.0,2606.769393353375,0.5674856894292758,1.2722096366184312,0.9835948769911689,0.2828252375,0.7637178371558088
0.075,1.659375,1.0,2604.829316308413,0.5699117306560172,1.2713837332878806,0.9836952944349958,0.28274675,0.7651494556974889
0.0755,1.65749375,1.0,2602.9013999548897,0.572324180734746,1.2705520783260664,0.9837935080837766,0.2826677375,0.7665866483209376
