Time [s],Phi [rad],STIM [ ],Fsee [N],Gamma [ ],Lcerel [ ],q [ ],Lmtc [m],fisomrel [ ]
0.0,1.8,1.0,18.136077249713253,0.0004182204389630438,1.3793208659056009,0.005045258604707587,0.288653,0.5411852062775038
0.0005,1.79999375,1.0,18.575065857626935,0.006025083861882514,1.3792693841842643,0.014112584364036753,0.2886527375,0.541309739223498
0.001,1.799975,1.0,22.219645316929224,0.011600497214033004,1.3788773130287637,0.03776748133122834,0.28865195,0.5422575946176793
0.0015,1.79994375,1.0,32.33299362980884,0.017144636906386707,1.3779396090634919,0.07353617857873614,0.2886506375,0.5445205736636956
0.002,1.7999,1.0,56.16265895512198,0.022657678358278078,1.376202705115785,0.11817981886236488,0.2886488,0.5486974638506559
0.0025,1.79984375,1.0,101.33542936091162,0.028139796006832644,1.3737341433072032,0.16833254955777624,0.28864643749999996,0.5546007338215271
0.003,1.7997750000000001,1.0,166.37075624321108,0.03359116330998755,1.3710134205432118,0.22115151048420106,0.28864354999999997,0.5610619954618171
0.0035,1.79969375,1.0,243.75301673142235,0.03901195275370115,1.368398950479414,0.27445929819485426,0.2886401375,0.5672264454262317
0.004,1.7996,1.0,327.899986328951,0.044402335854255376,1.3659865451488646,0.3266374460514006,0.2886362,0.5728757932716775
0.0045000000000000005,1.7994937500000001,1.0,415.9138044229927,0.04976248316689639,1.3637674342144828,0.3765654188065835,0.2886317375,0.578039712388431
0.005,1.799375,1.0,506.1811997959735,0.055092564279084655,1.3617150133159084,0.42354963017016645,0.28862675,0.582787784253419
0.0055,1.79924375,1.0,597.6151401564476,0.060392747887733425,1.359805879369044,0.4672300760109782,0.2886212375,0.5871802588375925
0.006,1.7991000000000001,1.0,689.3387246627464,0.06566320162203457,1.35802274230343,0.507488272048472,0.2886152,0.5912618494691704
0.006500000000000001,1.79894375,1.0,780.6568011130237,0.07090409228710604,1.3563518427114756,0.5443681665696818,0.2886086375,0.5950681256254329
0.007,1.798775,1.0,870.9798075023376,0.07611558571850485,1.3547824740684993,0.5780162675139164,0.28860155,0.5986269008094217
0.0075,1.79859375,1.0,959.8131013920378,0.08129784665046279,1.3533059010731834,0.6086376788858927,0.2885939375,0.6019609064632205
0.008,1.7984,1.0,1046.7949073951047,0.08645103947265623,1.351914028663447,0.6364653058573414,0.2885858,0.6050909324931844
0.0085,1.79819375,1.0,1131.598819124168,0.09157532681954478,1.3506003986561215,0.6617406145941697,0.2885771375,0.60803367494314
0.009000000000000001,1.797975,1.0,1213.9851305843595,0.09667087077443372,1.3493589958907954,0.6847003814364994,0.28856795,0.6108045025196913
0.0095,1.79774375,1.0,1293.7934136678678,0.10173783304688,1.3481841242887658,0.7055692443432464,0.2885582375,0.6134177793152593
0.01,1.7975,1.0,1370.8886330023906,0.10677637366875292,1.3470709243520143,0.7245560443020189,0.288548,0.6158857572367296
0.0105,1.79724375,1.0,1445.1825132825231,0.1117866518497579,1.34601488779712,0.7418518675765238,0.2885372375,0.61821969841437
0.011,1.796975,1.0,1516.6343830058393,0.11676882612895323,1.3450117201249538,0.7576297319097752,0.28852595000000003,0.6204302071952186
0.0115,1.79669375,1.0,1585.2414792672764,0.12172305502082895,1.3440573606659532,0.772045218259698,0.2885141375,0.6225272084552878
0.012,1.7964,1.0,1650.9892558450429,0.12664949439868015,1.3431484770715767,0.7852377767347992,0.28850180000000003,0.6245188861079644
0.0125,1.79609375,1.0,1713.9011761886954,0.13154829999365766,1.3422817724713096,0.7973317279262233,0.2884889375,0.6264132277866665
0.013000000000000001,1.7957750000000001,1.0,1774.0195649010914,0.13641962675594133,1.3414541571382486,0.8084377582143376,0.28847555,0.6282176612659702
0.0135,1.79544375,1.0,1831.4210195930436,0.14126363016437216,1.3406625236483816,0.8186542309628673,0.2884616375,0.6299395567012624
0.014,1.7951000000000001,1.0,1886.1548477503668,0.14608046274463418,1.3399043889805669,0.8280687593426053,0.2884472,0.6315848416828683
0.0145,1.79474375,1.0,1938.2774210664695,0.15087027619853824,1.3391774518481836,0.8367592460824209,0.2884322375,0.6331589800949398
0.015,1.794375,1.0,1987.8660801467286,0.15563322222789513,1.3384794109646112,0.8447949391398429,0.28841675,0.6346673735747763
0.0155,1.79399375,1.0,2035.0005463337595,0.1603694515652639,1.3378081415498952,0.8522375026673599,0.2884007375,0.63611498565882
0.016,1.7936,1.0,2079.7829767869134,0.16507911544617102,1.3371614591991035,0.8591418365728575,0.2883842,0.6375068572408524
0.0165,1.7931937500000001,1.0,2122.2856915555476,0.1697623620152672,1.3365376464991379,0.8655570351012233,0.2883671375,0.6388469785995579
0.017,1.792775,1.0,2162.5828373112095,0.17441933875372323,1.3359350933854521,0.8715269637350036,0.28834955,0.6401390721687104
0.0175,1.7923437500000001,1.0,2200.7594768391505,0.1790501931427098,1.3353521897935,0.8770908456687824,0.2883314375,0.6413868265328585
0.018000000000000002,1.7919,1.0,2236.8999759011394,0.18365507158242703,1.334787432907778,0.8822838354697138,0.2883128,0.6425936695376915
0.0185,1.79144375,1.0,2271.0997785519367,0.1882341214670529,1.3342392970574406,0.8871374604658357,0.2882936375,0.6437630494341453
0.019,1.790975,1.0,2303.4330178512105,0.1927874869816623,1.3337065474046972,0.8916801159560664,0.28827395,0.6448977685562391
0.0195,1.79049375,1.0,2333.970906143488,0.19731531123866095,1.3331880424670544,0.8959373743097011,0.2882537375,0.6460004093015701
0.02,1.79,1.0,2362.79043951399,0.20181773735045472,1.3326826407620178,0.8999322830651991,0.288233,0.647073534871206
0.0205,1.78949375,1.0,2389.971914730145,0.20629490810107773,1.3321892201776695,0.9036856523854392,0.2882117375,0.648119649227525
0.021,1.788975,1.0,2415.587618405108,0.2107469648414585,1.331706782299847,0.9072163251546613,0.28818995000000003,0.6491409776029399
0.021500000000000002,1.78844375,1.0,2439.723112317721,0.21517405121034783,1.3312342406192497,0.9105413487811668,0.2881676375,0.650139916586062
0.022,1.7879,1.0,2462.4357401254465,0.21957630547725962,1.330770816235562,0.9136762466110853,0.2881448,0.651118198746365
0.0225,1.78734375,1.0,2483.785852293895,0.22395386591170793,1.330315730248469,0.9166351200967323,0.28812143749999997,0.6520775457602701
0.023,1.786775,1.0,2503.836557884048,0.22830687078320666,1.3298682037576541,0.9194307987157517,0.28809755,0.6530196688447027
0.0235,1.78619375,1.0,2522.653489789765,0.23263545836126978,1.3294274578628025,0.9220749723125455,0.28807313749999996,0.65394626915195
0.024,1.7856,1.0,2540.2950159648717,0.2369397646412466,1.3289928038086025,0.9245783232871425,0.2880482,0.6548588489864617
0.0245,1.78499375,1.0,2556.826870708546,0.24121992895252473,1.3285635021622673,0.9269506061488489,0.2880227375,0.6557590084402609
0.025,1.784375,1.0,2572.3020187597044,0.24547608674660754,1.3281389504854333,0.9292007690047854,0.28799675,0.6566480522140254
0.025500000000000002,1.78374375,1.0,2586.765816737688,0.249708370953149,1.3277186315939136,0.9313370243440522,0.2879702375,0.6575270998284846
0.026000000000000002,1.7831000000000001,1.0,2600.264913813743,0.25391691450180304,1.3273020283035217,0.9333669074522659,0.2879432,0.6583972648864818
0.0265,1.78244375,1.0,2612.8471414080577,0.2581018503222236,1.326888623430071,0.9352973413937218,0.2879156375,0.6592596552040602
0.027,1.781775,1.0,2624.561408817515,0.2622633113440647,1.326477899789375,0.9371346949656781,0.28788755,0.6601153729244862
0.0275,1.7810937500000001,1.0,2635.451989996872,0.266401428870562,1.3260693921360693,0.9388848416165467,0.2878589375,0.6609654066071884
0.028,1.7804,1.0,2645.5602693302667,0.2705163343073282,1.3256626696942402,0.940553203028264,0.2878298,0.6618106682640951
0.0285,1.77969375,1.0,2654.940031903599,0.2746081620771817,1.3252571942066793,0.9421447707650473,0.2878001375,0.6626522883188728
0.029,1.778975,1.0,2663.6226770338058,0.27867703927221366,1.324852640259646,0.9436641862246798,0.28776995,0.6634909506260744
0.029500000000000002,1.7782437500000001,1.0,2671.6401313230117,0.28272309298451537,1.3244486824393988,0.9451157445276042,0.2877392375,0.6643273356611548
0.03,1.7775,1.0,2679.0248024540697,0.2867464503061779,1.3240449953321967,0.9465034247814735,0.287708,0.6651621205362138
0.0305,1.77674375,1.0,2685.8095353344074,0.29074723832929267,1.3236412535242983,0.9478309173412672,0.2876762375,0.6659959790089951
0.031,1.775975,1.0,2692.0275705873632,0.2947255841459508,1.3232371316019624,0.9491016483958644,0.28764395,0.6668295814851264
0.0315,1.7751937500000001,1.0,2697.712505391245,0.29868161484824346,1.3228323041514478,0.9503188021722729,0.2876111375,0.6676635950136068
0.032,1.7744,1.0,2702.891651433138,0.302615452989096,1.3224265060928522,0.9514853469929632,0.2875778,0.6684985592115943
0.0325,1.77359375,1.0,2707.5998202874684,0.3065272288401427,1.322019406293434,0.9526040414123634,0.2875439375,0.6693351465893631
0.033,1.772775,1.0,2711.860111675219,0.3104170648763636,1.3216107827781773,0.9536774672516182,0.28750955,0.670173802298495
0.0335,1.7719437500000002,1.0,2715.69409469008,0.3142850823068464,1.3212004292849764,0.9547080347050623,0.2874746375,0.6710149369488103
0.034,1.7711000000000001,1.0,2719.1235079918147,0.318131402340679,1.3207881395517258,0.9556979944511931,0.2874392,0.6718589589379544
0.0345,1.7702437500000001,1.0,2722.1702423734023,0.32195614618694923,1.32037370731632,0.9566494500914132,0.2874032375,0.6727062744272863
0.035,1.7693750000000001,1.0,2724.8563242709165,0.3257594350547449,1.3199569263166533,0.9575643694798902,0.28736675,0.67355728731505
0.035500000000000004,1.76849375,1.0,2727.2039002174615,0.3295413901531539,1.31953759029062,0.9584445950549828,0.2873297375,0.6744123992068366
0.036000000000000004,1.7676,1.0,2729.2283580849653,0.3333021261025857,1.3191155553717506,0.9592918581847517,0.2872922,0.675271882397255
0.0365,1.76669375,1.0,2730.9523807534274,0.33704176599329194,1.3186906121578783,0.9601077778373073,0.2872541375,0.6761361406965459
0.037,1.765775,1.0,2732.4024503980363,0.34076043757113106,1.3182625174719667,0.960893871146687,0.28721555,0.6770056440446623
0.0375,1.76484375,1.0,2733.5911867017644,0.344458255045855,1.3178311547066899,0.9616515725870324,0.2871764375,0.6778806029904725
0.038,1.7639,1.0,2734.5312593576928,0.3481353326272157,1.3173964072547226,0.9623822305430502,0.28713679999999997,0.6787612266001093
0.0385,1.76294375,1.0,2735.235382074661,0.3517917845249651,1.3169581585087393,0.963087113418221,0.28709663750000003,0.679647722432235
0.039,1.761975,1.0,2735.7163068832024,0.3554277249488553,1.3165162918614148,0.963767415245688,0.28705595,0.6805402965124352
0.0395,1.7609937500000001,1.0,2735.9868187444667,0.35904326810863807,1.3160706907054232,0.9644242608472474,0.2870147375,0.6814391533067499
0.04,1.76,1.0,2736.059730458935,0.3626385282140655,1.3156212384334391,0.9650587105812828,0.286973,0.6823444956943309
0.0405,1.7589937500000001,1.0,2735.947877878026,0.36621361947488945,1.3151678184381375,0.965671764716424,0.2869307375,0.6832565249392386
0.041,1.757975,1.0,2735.6641154162758,0.36976865610086196,1.3147103141121923,0.9662643674640604,0.28688795,0.6841754406613688
0.0415,1.75694375,1.0,2735.2213118653003,0.373303752301735,1.3142486088482783,0.9668374106996137,0.2868446375,0.6851014408065108
0.042,1.7559,1.0,2734.62882420707,0.37681901633262144,1.3137826180254182,0.9673917390878897,0.28680079999999997,0.6860346576055948
0.0425,1.75484375,1.0,2733.89672673027,0.38031456114431794,1.3133122505876107,0.9679281517362096,0.2867564375,0.6869752347950455
0.043000000000000003,1.753775,1.0,2733.0387085846382,0.38379050638877754,1.3128373826956752,0.9684474032613408,0.28671155,0.6879233800641571
0.043500000000000004,1.75269375,1.0,2732.061380726794,0.38724695880454746,1.3123579548257684,0.968950211326519,0.28666613750000003,0.688879171100329
0.044,1.7516,1.0,2730.971357553143,0.39068402513017475,1.3118739074540484,0.9694372559048458,0.2866202,0.6898426844685703
0.0445,1.75049375,1.0,2729.775255507787,0.39410181210420675,1.3113851810566721,0.9699091816278426,0.2865737375,0.6908139955940802
0.045,1.7493750000000001,1.0,2728.479691767713,0.39750042646519046,1.3108917161097973,0.970366599965371,0.28652675,0.6917931787445958
0.0455,1.74824375,1.0,2727.0912830072634,0.40087997495167316,1.3103934530895809,0.9708100912505655,0.2864792375,0.6927803070125196
0.046,1.7471,1.0,2725.616644240758,0.4042405643022019,1.309890332472181,0.9712402065621855,0.2864312,0.693775452296815
0.0465,1.7459437500000001,1.0,2724.062387744139,0.4075823012553239,1.3093822947337541,0.9716574694757119,0.28638263750000004,0.6947786852846827
0.047,1.744775,1.0,2722.4351220543517,0.41090529254958635,1.3088692803504582,0.9720623776934991,0.28633355,0.695790075433004
0.0475,1.74359375,1.0,2720.7414510485223,0.41420964492353635,1.308351229798451,0.9724554045634072,0.28628393750000003,0.6968096909495628
0.048,1.7424,1.0,2718.9826586781564,0.417495453931429,1.307828131953291,0.9728370024964447,0.2862338,0.6978375037568473
0.0485,1.74119375,1.0,2717.162673013906,0.4207628239486413,1.3072999516095252,0.9732076016403183,0.2861831375,0.698873532336682
0.049,1.739975,1.0,2715.2962758589383,0.42401188036676996,1.3067665546204188,0.9735676074400649,0.28613195,0.6999179877752475
0.0495,1.73874375,1.0,2713.386276028229,0.4272427217564045,1.3062279158211005,0.9739174104009424,0.2860802375,0.7009708659817122
0.05,1.7375,1.0,2711.4354795800778,0.4304554466881343,1.3056840100466984,0.9742573828357138,0.286028,0.7020321619954399
0.0505,1.73624375,1.0,2709.446689597592,0.4336501537325489,1.3051348121323416,0.974587879872557,0.2859752375,0.7031018699775529
0.051000000000000004,1.734975,1.0,2707.4227059852547,0.4368269414602377,1.3045802969131581,0.9749092403984402,0.28592195,0.7041799832024631
0.051500000000000004,1.73369375,1.0,2705.366325278492,0.4399859084417902,1.3040204392242771,0.975221787942637,0.2858681375,0.7052664940493547
0.052000000000000005,1.7324,1.0,2703.2803404681545,0.44312715324779584,1.3034552139008266,0.9755258315046682,0.2858138,0.7063613939936337
0.0525,1.73109375,1.0,2701.1675408384303,0.446250774448844,1.3028845957779354,0.9758216663306214,0.28575893750000003,0.7074646735983314
0.053,1.729775,1.0,2699.0307118190176,0.44935687061552426,1.302308559690732,0.9761095746414876,0.28570355000000003,0.7085763225054691
0.0535,1.72844375,1.0,2696.872634851539,0.45244554031842604,1.301727080474345,0.976389826316867,0.2856476375,0.7096963294273856
0.054,1.7271,1.0,2694.696087269633,0.4555168821281388,1.301140132963903,0.9766626795371366,0.2855912,0.7108246821380193
0.0545,1.7257437500000001,1.0,2692.5038421932563,0.45857099461525197,1.3005476919945345,0.9769283813869334,0.2855342375,0.7119613674641532
0.055,1.724375,1.0,2690.298668436984,0.46160797635035505,1.299949732401368,0.9771871684225885,0.28547675,0.713106371276619
0.0555,1.72299375,1.0,2688.0833304326543,0.4646279259040374,1.2993462290195321,0.977439267205951,0.2854187375,0.7142596784814599
0.056,1.7216,1.0,2685.8566619505254,0.4676309199260511,1.2987371926607343,0.9776848948762221,0.2853602,0.7154212044680591
0.0565,1.72019375,1.0,2683.624400741943,0.47061707625068483,1.2981225708666029,0.9779242597013207,0.28530113749999997,0.7165909845021918
0.057,1.718775,1.0,2681.3889329715194,0.4735864939316874,1.2975023418286205,0.9781575613908834,0.28524155,0.7177689942808887
0.0575,1.71734375,1.0,2679.151096710717,0.47653926320713924,1.2968764979052125,0.9783849915173786,0.2851814375,0.7189551817332154
0.058,1.7159,1.0,2676.911728647327,0.4794754743151207,1.296245031454805,0.9786067339065991,0.2851208,0.7201494940635891
0.0585,1.71444375,1.0,2674.671664080888,0.48239521749371234,1.2956079348358238,0.9788229650106048,0.2850596375,0.7213518777490413
0.059000000000000004,1.7129750000000001,1.0,2672.4317369191745,0.4852985829809944,1.2949652004066943,0.9790338542598495,0.28499795,0.7225622785364754
0.059500000000000004,1.71149375,1.0,2670.192779676758,0.48818566101504735,1.2943168205258424,0.9792395643958117,0.2849357375,0.7237806414399206
0.06,1.71,1.0,2667.955623473988,0.4910565418339516,1.2936627875516937,0.9794402517853504,0.284873,0.7250069107377832
0.0605,1.7084937500000001,1.0,2665.721098038044,0.4939113156757876,1.293003093842674,0.9796360667179241,0.2848097375,0.7262410299700931
0.061,1.7069750000000001,1.0,2663.4900317046677,0.4967500727786357,1.2923377317572091,0.9798271536867305,0.28474595,0.7274829419357464
0.0615,1.7054437500000001,1.0,2661.2632514214824,0.4995729033805764,1.2916666936537247,0.9800136516547544,0.2846816375,0.728732588689746
0.062,1.7039,1.0,2659.0415827529296,0.50237989771969,1.2909899718906463,0.9801956943066401,0.2846168,0.7299899115404365
0.0625,1.70234375,1.0,2656.825849885462,0.505171146034057,1.2903075588264001,0.9803734102872461,0.2845514375,0.7312548510467354
0.063,1.7007750000000001,1.0,2654.616875635365,0.5079467385617578,1.2896194468194113,0.9805469234276801,0.28448555,0.7325273470153641
0.0635,1.69919375,1.0,2652.4154814568924,0.5107067655408727,1.288925628228106,0.9807163529595588,0.28441913750000003,0.7338073384980683
0.064,1.6976,1.0,2650.219437180534,0.5134512700063892,1.288226123548366,0.9808818117099676,0.2843522,0.7350947120672258
0.0645,1.69599375,1.0,2648.0348483897665,0.5161803997174325,1.2875208763846266,0.9810434120934208,0.2842847375,0.7363894950351284
0.065,1.694375,1.0,2645.8618557514783,0.5188942376768578,1.2868098853177679,0.9812012605105636,0.28421675,0.7376916125127833
0.0655,1.69274375,1.0,2643.7004836871624,0.5215928654322011,1.2860931500005672,0.9813554594846131,0.2841482375,0.7390009869985744
0.066,1.6911,1.0,2641.550756621943,0.5242763645309979,1.2853706700858023,0.9815061078773811,0.2840792,0.7403175403532531
0.0665,1.6894437500000001,1.0,2639.4126989857623,0.526944816520784,1.2846424452262504,0.981653301044586,0.2840096375,0.7416411937998121
0.067,1.687775,1.0,2637.2863352132413,0.529598302949095,1.2839084750746887,0.9817971309835029,0.28393955,0.7429718679233572
0.0675,1.68609375,1.0,2635.1716897455144,0.5322369053634667,1.2831687592838952,0.9819376864733824,0.2838689375,0.7443094826709804
0.068,1.6844000000000001,1.0,2633.0687870301313,0.5348607053114347,1.2824232975066472,0.9820750532090424,0.2837978,0.7456539573516322
0.0685,1.68269375,1.0,2630.977651522346,0.5374697843405347,1.2816720893957219,0.9822093139280023,0.2837261375,0.7470052106359965
0.069,1.680975,1.0,2628.8983076857376,0.5400642239983025,1.280915134603897,0.9823405485315242,0.28365395,0.7483631605563599
0.0695,1.67924375,1.0,2626.8307799928875,0.5426441058322736,1.2801524327839497,0.9824688341998835,0.28358123749999997,0.7497277245064877
0.07,1.6775,1.0,2624.7750929263934,0.5452095113899837,1.2793839835886578,0.9825942455021857,0.283508,0.7510988192414942
0.07050000000000001,1.67574375,1.0,2622.731270979458,0.5477605222189688,1.2786097866707986,0.9827168545010215,0.2834342375,0.7524763608777172
0.07100000000000001,1.673975,1.0,2620.6993386566787,0.5502972198667642,1.2778298416831495,0.9828367308522371,0.28335995,0.7538602648925896
0.07150000000000001,1.67219375,1.0,2618.679320474968,0.5528196858809058,1.277044148278488,0.9829539419000746,0.2832851375,0.7552504461245126
0.07200000000000001,1.6704,1.0,2616.6712409643137,0.5553280018089293,1.2762527061095916,0.983068552767931,0.2832098,0.7566468187727283
0.0725,1.66859375,1.0,2614.67512466851,0.5578222491983701,1.275455514829238,0.9831806264449624,0.2831339375,0.7580492963971923
0.073,1.6667750000000001,1.0,2612.6909961459905,0.5603025095967643,1.274652574090204,0.9832902238687508,0.28305755,0.7594577919184472
0.0735,1.66494375,1.0,2610.715405050251,0.5627688348701897,1.2738439158415351,0.9833974037271116,0.2829806375,0.7608721612135658
0.074,1.6631,1.0,2608.7484268836492,0.5652213105150578,1.2730295392991013,0.9835022233237799,0.2829032,0.7622923171878841
0.0745,1.6612437500000001,1.0,2606.794439523304,0.5676600515227913,1.2722094036611167,0.9836047380340129,0.2828252375,0.7637182415767195
0.075,1.659375,1.0,2604.8531387705807,0.5700851303998238,1.2713835116298882,0.9837050009626428,0.28274675,0.7651498393349183
0.0755,1.65749375,1.0,2602.924220943334,0.5724966196525884,1.2705518659077224,0.9838030635418921,0.2826677375,0.7665870148400823
