Time [s],Phi [rad],STIM [ ],Fsee [N],Gamma [ ],Lcerel [ ],q [ ],Lmtc [m],fisomrel [ ]
0.0,1.8,1.0,19.555024944928963,0.0012866353369260736,1.3791656177946392,0.005424241723364196,0.288653,0.541560696053602
0.0005,1.79999375,1.0,20.22747684231901,0.0068886276389574985,1.3790911919093882,0.01686076376640046,0.2886527375,0.5417406512012736
0.001,1.799975,1.0,24.523967093408924,0.012459197193561557,1.3786508921811076,0.042566744950824346,0.28865195,0.5428045339618981
0.0015,1.79994375,1.0,36.18369751955559,0.017998520257634126,1.3776270615992652,0.07992385313266281,0.2886506375,0.5452736044257168
0.002,1.7999,1.0,62.976571834442794,0.02350677209890334,1.375783284910852,0.12562846676584974,0.2886488,0.5497031976454383
0.0025,1.79984375,1.0,111.5548953393382,0.028984127003414035,1.3732636235991977,0.1763621361155315,0.28864643749999996,0.5557215156173356
0.003,1.7997750000000001,1.0,178.90565756342113,0.034430758277339046,1.3705603024299473,0.22938662306822039,0.28864354999999997,0.562133489359139
0.0035,1.79969375,1.0,257.51559977727317,0.03984683825561726,1.3679860855398875,0.28261550249355105,0.2886401375,0.568195921074715
0.004,1.7996,1.0,342.3068728126321,0.0452325383061867,1.3656127848524469,0.3345103862890228,0.2886362,0.5737477409197653
0.0045000000000000005,1.7994937500000001,1.0,430.67547790255054,0.05058802884636491,1.36342669815654,0.38402191657112117,0.2886317375,0.5788298312086583
0.005,1.799375,1.0,521.1086230984671,0.055913479238134195,1.361402223795005,0.4305145310070899,0.28862675,0.5835090326403863
0.0055,1.79924375,1.0,612.6057594398065,0.06120905825675991,1.3595164797495143,0.47367076393744334,0.2886212375,0.587844071391955
0.006,1.7991000000000001,1.0,704.2640553589061,0.06647493311471497,1.3577542306966641,0.5134026358707141,0.2886152,0.5918747143451468
0.006500000000000001,1.79894375,1.0,795.4282041221737,0.07171127059321018,1.3561019583525349,0.5497731674402582,0.2886086375,0.5956358267139334
0.007,1.798775,1.0,885.5256583170943,0.07691823637888409,1.3545493857681317,0.5829404115876854,0.28860155,0.5991541232507671
0.0075,1.79859375,1.0,974.0824431238201,0.08209599514843849,1.353087983244022,0.6131154837857418,0.2885939375,0.6024517732419302
0.008,1.7984,1.0,1060.7299134232762,0.08724471094653653,1.3517101716951803,0.6405338506174776,0.2885858,0.6055483262951111
0.0085,1.79819375,1.0,1145.157897422866,0.09236454635489463,1.350409555690484,0.6654369119097513,0.2885771375,0.6084602783188698
0.009000000000000001,1.797975,1.0,1227.1475608474407,0.09745566336230858,1.349180081883118,0.6880599003257308,0.28856795,0.6112030306635808
0.0095,1.79774375,1.0,1306.549420541777,0.10251822376802604,1.3480161266715869,0.7086251844795503,0.2885582375,0.613790738445491
0.01,1.7975,1.0,1383.2186630390554,0.1075523869834989,1.3469131351896548,0.7273390708153541,0.288548,0.6162349382426157
0.0105,1.79724375,1.0,1457.076814056265,0.11255831227868107,1.3458666106927586,0.7443898348835898,0.2885372375,0.618546835484387
0.011,1.796975,1.0,1528.0903084158874,0.11753615812827863,1.3448722891362048,0.7599477455506105,0.28852595000000003,0.6207369393684756
0.0115,1.79669375,1.0,1596.259918655114,0.12248608291293003,1.3439261687559931,0.7741657937418757,0.2885141375,0.6228150205510974
0.012,1.7964,1.0,1661.5740478043501,0.12740824233295467,1.3430249667753105,0.787181027171662,0.28850180000000003,0.6247891331913175
0.0125,1.79609375,1.0,1724.058336778646,0.13230279194929362,1.3421654336150979,0.7991155780789958,0.2884889375,0.6266671429814799
0.013000000000000001,1.7957750000000001,1.0,1783.7589968108025,0.13716988658485096,1.3413444974639872,0.8100781499004958,0.28847555,0.6284564223566902
0.0135,1.79544375,1.0,1840.7507628849146,0.1420096815641055,1.3405591259370195,0.8201653563605674,0.2884616375,0.6301641637149658
0.014,1.7951000000000001,1.0,1895.0864346966393,0.14682232943378423,1.3398068419364864,0.8294632279658135,0.2884472,0.6317962696847952
0.0145,1.79474375,1.0,1946.8225789801177,0.1516079816701974,1.3390853811088683,0.8380482762221172,0.2884322375,0.633358113259737
0.015,1.794375,1.0,1996.0362432860754,0.1563667897496554,1.3383924791006465,0.8459885197277351,0.28841675,0.6348550066585412
0.0155,1.79399375,1.0,2042.8108847482001,0.1610989042940422,1.3377260007633023,0.8533445221540403,0.2884007375,0.6362919273227868
0.016,1.7936,1.0,2087.2433736014104,0.1658044763926113,1.3370838431817282,0.8601702424162757,0.2883842,0.6376737329905486
0.0165,1.7931937500000001,1.0,2129.409317742311,0.17048365435394863,1.3364642758099785,0.8665139155416615,0.2883671375,0.6390044359173046
0.017,1.792775,1.0,2169.38214377076,0.1751365853541819,1.3358657149251796,0.8724186603292284,0.28834955,0.6402876962302233
0.0175,1.7923437500000001,1.0,2207.2459464747863,0.17976341656943892,1.3352865768044575,0.8779230411336756,0.2883314375,0.6415271409909076
0.018000000000000002,1.7919,1.0,2243.087489971569,0.18436429437710114,1.3347253488235389,0.8830616210562534,0.2883128,0.6427262144609701
0.0185,1.79144375,1.0,2276.998974064549,0.18893936559512928,1.3341805507851174,0.8878654186031961,0.2882936375,0.6438882636382511
0.019,1.790975,1.0,2309.062302459136,0.1934887753659767,1.3336508817022321,0.8923623516361753,0.28827395,0.6450162281228415
0.0195,1.79049375,1.0,2339.344787749575,0.19801266631600678,1.3331352492676767,0.896577596356917,0.2882537375,0.646112581936744
0.02,1.79,1.0,2367.91930674685,0.20251118107158295,1.3326325611742453,0.9005338486141022,0.288233,0.6471797807610393
0.0205,1.78949375,1.0,2394.863837049292,0.20698446225906864,1.332141725114732,0.9042516017365404,0.2882117375,0.648220262875669
0.021,1.788975,1.0,2420.251269583426,0.2114326509456103,1.3316617429021393,0.9077494097987294,0.28818995000000003,0.6492362509410562
0.021500000000000002,1.78844375,1.0,2444.164635503042,0.2158558901571891,1.331191557955262,0.9110440689767684,0.2881676375,0.6502300763366273
0.022,1.7879,1.0,2466.6708629289096,0.2202543198575509,1.3307303041763854,0.9141508554824614,0.2881448,0.6512036540159298
0.0225,1.78734375,1.0,2487.8264333073193,0.2246280777044949,1.3302772447067308,0.9170836742874277,0.28812143749999997,0.6521586148881705
0.023,1.786775,1.0,2507.690467537153,0.22897730135582006,1.329831642687519,0.9198551788595188,0.28809755,0.6530965799810358
0.0235,1.78619375,1.0,2526.324505889646,0.23330212846932558,1.3293927612599714,0.9224769011145918,0.28807313749999996,0.654019160808455
0.024,1.7856,1.0,2543.7922999668826,0.23760269670281042,1.3289598635653093,0.9249593663195491,0.2880482,0.6549279597037407
0.0245,1.78499375,1.0,2560.14816094773,0.24187914033581204,1.328532320261939,0.9273122120273763,0.2880227375,0.6558243448447281
0.025,1.784375,1.0,2575.460378201776,0.24613159947194574,1.328109387063359,0.9295442425813711,0.28799675,0.6567099174773818
0.025500000000000002,1.78374375,1.0,2589.7735042059903,0.2503602068911813,1.3276905568798396,0.9316635638388917,0.2879702375,0.6575857746549127
0.026000000000000002,1.7831000000000001,1.0,2603.1317823995605,0.25456509487848944,1.327275337188935,0.9336776168734613,0.2879432,0.6584529772572351
0.0265,1.78244375,1.0,2615.580590572353,0.25874639571884084,1.3268632354681982,0.9355932394900128,0.2879156375,0.6593125806736646
0.027,1.781775,1.0,2627.16634248256,0.26290424169720616,1.3264537591951824,0.9374167232152933,0.28788755,0.6601656349085903
0.0275,1.7810937500000001,1.0,2637.93639485267,0.2670387650985562,1.3260464158474408,0.9391538642105509,0.2878589375,0.6610131846716765
0.028,1.7804,1.0,2647.9279871542894,0.2711500947099614,1.3256408141637053,0.940810022254395,0.2878298,0.6618560591543341
0.0285,1.77969375,1.0,2657.1896980256915,0.27523836474774577,1.3252364648359984,0.9423901349661353,0.2878001375,0.6626952868016018
0.029,1.778975,1.0,2665.764332304685,0.27930370627861056,1.3248329381232387,0.9438987746105065,0.28776995,0.6635317675708681
0.029500000000000002,1.7782437500000001,1.0,2673.682098695529,0.28334624559256344,1.324429925402321,0.9453401880385809,0.2877392375,0.6643661463757793
0.03,1.7775,1.0,2680.973666044186,0.28736610897961196,1.3240271180501413,0.9467183102810105,0.287708,0.6651990649493617
0.0305,1.77674375,1.0,2687.6701222496117,0.29136342272976373,1.3236242074435944,0.9480367913930918,0.2876762375,0.6660311618511012
0.031,1.775975,1.0,2693.8029352864555,0.29533831313302644,1.3232208849595761,0.9492990206720759,0.28764395,0.6668630724679478
0.0315,1.7751937500000001,1.0,2699.4039163396537,0.29929090647940765,1.3228168419749815,0.9505081485324117,0.2876111375,0.6676954290092469
0.032,1.7744,1.0,2704.505185050847,0.30322132905891497,1.322411769866706,0.9516671062907391,0.2875778,0.6685288604955939
0.0325,1.77359375,1.0,2709.132783841605,0.30712970269484885,1.322005417974962,0.9527786296713412,0.2875439375,0.6693638737078125
0.033,1.772775,1.0,2713.316715653713,0.31101615643432423,1.3215975015902306,0.9538452671278361,0.28750955,0.6702010426368674
0.0335,1.7719437500000002,1.0,2717.0802945039077,0.314880813088365,1.3211877988769547,0.9548694020749763,0.2874746375,0.6710408094788805
0.034,1.7711000000000001,1.0,2720.4440466420247,0.31872379283257757,1.3207761149331692,0.9558532628058964,0.2874392,0.6718835589553006
0.0345,1.7702437500000001,1.0,2723.428643814121,0.3225452158425682,1.3203622548569092,0.9567989322810808,0.2874032375,0.6727296736702704
0.035,1.7693750000000001,1.0,2726.05488785095,0.3263452022939431,1.319946023746209,0.9577083593027091,0.28736675,0.6735795340847903
0.035500000000000004,1.76849375,1.0,2728.3436960982276,0.3301238723623086,1.3195272266991038,0.9585833687061208,0.2873297375,0.6744335184884551
0.036000000000000004,1.7676,1.0,2730.3160876894613,0.3338813462232711,1.3191056688136285,0.9594256706650598,0.2872922,0.6752920029687719
0.0365,1.76669375,1.0,2731.9931706609887,0.3376177440524368,1.3186811551878175,0.9602368691969159,0.2872541375,0.6761553613780555
0.037,1.765775,1.0,2733.3796791746113,0.3413331718351976,1.3182536403442815,0.9610184816733058,0.28721555,0.6770236620140713
0.0375,1.76484375,1.0,2734.5115080167852,0.34502776729022405,1.3178227962994549,0.9617719127052843,0.2871764375,0.6778975451288113
0.038,1.7639,1.0,2735.4028757846063,0.34870164613346327,1.3173884925132178,0.9624984970871475,0.28713679999999997,0.6787772475133518
0.0385,1.76294375,1.0,2736.0651544144216,0.3523549213128213,1.3169506246747653,0.9631994924896832,0.28709663750000003,0.679662951270013
0.039,1.761975,1.0,2736.5097511991626,0.35598770577620437,1.3165090884732924,0.9638760829740811,0.28705595,0.6805548370975942
0.0395,1.7609937500000001,1.0,2736.748104096451,0.35960011247151835,1.3160637795979937,0.9645293840892577,0.2870147375,0.6814530842673179
0.04,1.76,1.0,2736.791677276932,0.3631922543466695,1.3156145937380646,0.9651604475637761,0.286973,0.6823578705980755
0.0405,1.7589937500000001,1.0,2736.651956914833,0.3667642443495638,1.3151614265826996,0.9657702656285619,0.2869307375,0.6832693724309873
0.041,1.757975,1.0,2736.3404472187826,0.37031619542810734,1.3147041738210938,0.9663597750030497,0.28688795,0.6841877646032615
0.0415,1.75694375,1.0,2735.868666704656,0.3738482205302062,1.3142427311424423,0.966929860574202,0.2868446375,0.6851132204213608
0.042,1.7559,1.0,2735.2481447093373,0.37736043260376645,1.3137769942359399,0.9674813587950072,0.28680079999999997,0.6860459116334789
0.0425,1.75484375,1.0,2734.4904181457932,0.3808529445966942,1.3133068587907812,0.9680150608265037,0.2867564375,0.6869860084013184
0.043000000000000003,1.753775,1.0,2733.6036714335037,0.3843258631333297,1.3128322509876968,0.9685317169172781,0.28671155,0.6879336184374064
0.043500000000000004,1.75269375,1.0,2732.5961536720056,0.38777929905085606,1.3123530964586485,0.9690320381766954,0.28666613750000003,0.6888888492751729
0.044,1.7516,1.0,2731.480787320623,0.3912133723927559,1.3118692783933852,0.9695166964553877,0.2866202,0.6898518915637412
0.0445,1.75049375,1.0,2730.263321429012,0.3946281884267733,1.3113807451438217,0.9699863315624786,0.2865737375,0.6908228046992294
0.045,1.7493750000000001,1.0,2728.9495059507444,0.39802385242065247,1.3108874450618724,0.970441550451216,0.28652675,0.6918016470118026
0.0455,1.74824375,1.0,2727.5450907076183,0.40140046964213755,1.3103893264994515,0.9708829292218624,0.2864792375,0.6927884757500539
0.046,1.7471,1.0,2726.055824413902,0.40475814535897264,1.3098863378084737,0.9713110149838131,0.2864312,0.6937833470652185
0.0465,1.7459437500000001,1.0,2724.487453759063,0.4080969848389019,1.3093784273408535,0.9717263275880935,0.28638263750000004,0.6947863159952176
0.047,1.744775,1.0,2722.845722549574,0.41141709334966947,1.3088655434485055,0.9721293612404073,0.28633355,0.6957974364485312
0.0475,1.74359375,1.0,2721.1363709108805,0.4147185761590194,1.3083476344833438,0.9725205860040202,0.28628393750000003,0.6968167611879025
0.048,1.7424,1.0,2719.365134546673,0.4180015385346959,1.3078246487972833,0.9729004492009732,0.2862338,0.6978443418138686
0.0485,1.74119375,1.0,2717.5377440595653,0.42126608574444313,1.3072965347422383,0.9732693767193756,0.2861831375,0.6988802287481262
0.049,1.739975,1.0,2715.6599243286896,0.42451232305600517,1.306763240670123,0.9736277742338937,0.28613195,0.6999244712167225
0.0495,1.73874375,1.0,2713.734615510734,0.4277403340809276,1.3062247402610443,0.973976027504299,0.2860802375,0.7009770677680356
0.05,1.7375,1.0,2711.7693849181233,0.4309502478071137,1.3056809649735273,0.9743145068289841,0.286028,0.7020380983828227
0.0505,1.73624375,1.0,2709.7675311578187,0.434142166866724,1.3051318851180955,0.9746435649048798,0.2859752375,0.7031075659575171
0.051000000000000004,1.734975,1.0,2707.7316571480173,0.4373161885511376,1.3045774773177823,0.974963538126092,0.28592195,0.7041854601745403
0.051500000000000004,1.73369375,1.0,2705.6643626591745,0.4404724101517334,1.3040177181956212,0.9752747476685079,0.2858681375,0.7052717698441577
0.052000000000000005,1.7324,1.0,2703.5682441553886,0.44361092895989046,1.3034525843746456,0.9755775003087946,0.2858138,0.7063664828965197
0.0525,1.73109375,1.0,2701.4458946485543,0.4467318422669878,1.3028820524778888,0.9758720891924286,0.28575893750000003,0.7074695863736653
0.053,1.729775,1.0,2699.299903563845,0.44983524736440444,1.3023060991283846,0.9761587945543316,0.28570355000000003,0.7085810664214902
0.0535,1.72844375,1.0,2697.1328566180678,0.45292124154351937,1.3017247009491661,0.9764378843954274,0.2856476375,0.7097009082816845
0.054,1.7271,1.0,2694.947335709607,0.45598992209571165,1.301137834563267,0.9767096151181611,0.2855912,0.7108290962836303
0.0545,1.7257437500000001,1.0,2692.7459188205544,0.45904138631236024,1.3005454765937206,0.9769742321238034,0.2855342375,0.7119656138362671
0.055,1.724375,1.0,2690.5311799312135,0.4620757314848442,1.2999476036635602,0.9772319703741323,0.28547675,0.7131104434199229
0.0555,1.72299375,1.0,2688.305688946459,0.4650930549045425,1.2993441923958198,0.9774830549199004,0.2854187375,0.7142635665781072
0.056,1.7216,1.0,2686.0720116343473,0.4680934538628342,1.2987352194135322,0.9777277013983086,0.2853602,0.7154249639092755
0.0565,1.72019375,1.0,2683.832709576804,0.4710770256510983,1.2981206613397311,0.9779661165015432,0.28530113749999997,0.7165946150585503
0.057,1.718775,1.0,2681.5870313237065,0.4740438213408953,1.2975005251407619,0.9781984960145715,0.28524155,0.7177724411383002
0.0575,1.71734375,1.0,2679.33926876032,0.4769939879143825,1.2968747715257367,0.978425033667906,0.2851814375,0.7189584503556812
0.058,1.7159,1.0,2677.0909711589256,0.4799276259788261,1.296243386310101,0.9786459126292908,0.2851208,0.720152602256136
0.0585,1.71444375,1.0,2674.8428978773736,0.48284482348259977,1.2956063625385021,0.9788613080285365,0.2850596375,0.7213548419220525
0.059000000000000004,1.7129750000000001,1.0,2672.595807001008,0.4857456683740772,1.2949636932555872,0.9790713880406439,0.28499795,0.7225651137149995
0.059500000000000004,1.71149375,1.0,2670.35045534241,0.48863024860163207,1.294315371506004,0.9792763142145333,0.2849357375,0.7237833612732233
0.06,1.71,1.0,2668.1075984416993,0.4914986521136381,1.2936613903343996,0.9794762417837559,0.284873,0.7250095275091435
0.0605,1.7084937500000001,1.0,2665.867990568551,0.4943509668584691,1.2930017427854212,0.9796713199602998,0.2848097375,0.7262435546068426
0.061,1.7069750000000001,1.0,2663.6323847246404,0.4971872807844987,1.2923364219037166,0.9798616922125404,0.28474595,0.7274853840195543
0.0615,1.7054437500000001,1.0,2661.4015326474187,0.5000076818401006,1.2916654207339326,0.9800474965282988,0.2846816375,0.7287349564671495
0.062,1.7039,1.0,2659.1761848154474,0.5028122579736486,1.2909887323207168,0.9802288656639179,0.2846168,0.7299922119336169
0.0625,1.70234375,1.0,2656.9570904536695,0.5056010971335163,1.2903063497087166,0.980405927380192,0.2845514375,0.7312570896645418
0.063,1.7007750000000001,1.0,2654.7449975409886,0.5083742872680774,1.2896182659425794,0.9805788046659448,0.28448555,0.7325295281645834
0.0635,1.69919375,1.0,2652.540652818236,0.5111319163257059,1.2889244740669525,0.9807476159499808,0.28441913750000003,0.7338094651949454
0.064,1.6976,1.0,2650.344801797018,0.5138740722547751,1.2882249671264832,0.9809124753021013,0.2843522,0.7350968377708473
0.0645,1.69599375,1.0,2648.1581887705115,0.5166008430036589,1.2875197381658186,0.9810734926238235,0.2842847375,0.7363915821589897
0.065,1.694375,1.0,2645.981556824356,0.5193123165207311,1.2868087802296064,0.9812307738293994,0.28421675,0.7376936338750171
0.0655,1.69274375,1.0,2643.815647849046,0.5220085807543653,1.286092086362494,0.9813844210176962,0.2841482375,0.7390029276809797
0.066,1.6911,1.0,2641.6612025537142,0.5246897236529351,1.2853696496091285,0.9815345326354596,0.2840792,0.740319397582791
0.0665,1.6894437500000001,1.0,2639.518960480536,0.5273558331648145,1.2846414630141572,0.9816812036324521,0.2840096375,0.7416429768276792
0.067,1.687775,1.0,2637.3912096650083,0.5300069399631548,1.2839075052926825,0.9818245210747097,0.28393955,0.7429736238472113
0.0675,1.68609375,1.0,2635.275365514916,0.5326431919840993,1.283167800201508,0.9819645789593269,0.2838689375,0.7443112146971904
0.068,1.6844000000000001,1.0,2633.1710750691127,0.5352646777233574,1.282422350883956,0.9821014630915998,0.2837978,0.7456556623762105
0.0685,1.68269375,1.0,2631.0783436999527,0.5378714753491279,1.2816711571715138,0.9822352554900237,0.2837261375,0.7470068852603966
0.069,1.680975,1.0,2628.997176816298,0.5404636630296095,1.280914218895669,0.982366035368386,0.28365395,0.7483648010913142
0.0695,1.67924375,1.0,2626.9275798637923,0.5430413189330008,1.2801515358879088,0.9824938792493767,0.28358123749999997,0.7497293269759113
0.07,1.6775,1.0,2624.869558325362,0.5456045212275005,1.2793831079797207,0.9826188610728379,0.283508,0.7511003793864532
0.07050000000000001,1.67574375,1.0,2622.82311772159,0.5481533480813071,1.278608935002592,0.982741052298944,0.2834342375,0.7524778741604639
0.07100000000000001,1.673975,1.0,2620.788263610829,0.5506878776626196,1.2778290167880102,0.9828605220065753,0.28335995,0.7538617265006619
0.07150000000000001,1.67219375,1.0,2618.7650015898967,0.5532081881396366,1.2770433531674628,0.9829773369871466,0.2832851375,0.7552518509748996
0.07200000000000001,1.6704,1.0,2616.753337294325,0.5557143576805565,1.2762519439724371,0.9830915618341223,0.2832098,0.7566481615161016
0.0725,1.66859375,1.0,2614.753276398729,0.5582064644535784,1.2754547890344203,0.9832032590284494,0.2831339375,0.7580505714222034
0.073,1.6667750000000001,1.0,2612.7648246171893,0.5606845866269006,1.2746518881849003,0.9833124890201143,0.28305755,0.7594589933560875
0.0735,1.66494375,1.0,2610.7879877035884,0.5631488023687219,1.273843241255364,0.9834193103060279,0.2829806375,0.7608733393455247
0.074,1.6631,1.0,2608.8227714520267,0.5655991898472411,1.2730288480772989,0.9835237795044228,0.2829032,0.7622935207831099
0.0745,1.6612437500000001,1.0,2606.8691816971627,0.5680358272306567,1.2722087084821925,0.9836259514259439,0.2828252375,0.7637194484262014
0.075,1.659375,1.0,2604.9272243147543,0.5704587926871675,1.2713828223015322,0.9837258791415936,0.28274675,0.7651510323968591
