Time [s],Phi [rad],STIM [ ],Fsee [N],Gamma [ ],Lcerel [ ],q [ ],Lmtc [m],fisomrel [ ]
0.0,1.8,1.0,18.11910472230823,0.0003963057320291382,1.379322758963346,0.005040657429426359,0.288653,0.5411806266978165
0.0005,1.79999375,1.0,18.55146153973505,0.0060032920791236516,1.3792719858511417,0.014047699949267651,0.2886527375,0.5413034462644495
0.001,1.799975,1.0,22.17977243555077,0.011578827665943824,1.3788813317825823,0.037649979297546696,0.28865195,0.542247884013574
0.0015,1.79994375,1.0,32.25805442140796,0.017123088907400608,1.377945871241151,0.07337748765600138,0.2886506375,0.5445054796293601
0.002,1.7999,1.0,56.01500115986499,0.02263625122654951,1.3762120679139422,0.11799328914555557,0.2886488,0.5486749998594239
0.0025,1.79984375,1.0,101.10079698594268,0.0281184890639961,1.3737452183718246,0.16813050500790952,0.28864643749999996,0.554574335918996
0.003,1.7997750000000001,1.0,166.07084135088942,0.03356997588278724,1.3710244675029448,0.2209437000951551,0.28864354999999997,0.5610358562313655
0.0035,1.79969375,1.0,243.42246458244014,0.03899088417050149,1.368409008202503,0.2742529648018214,0.2886401375,0.5672028146532143
0.004,1.7996,1.0,327.5508003825466,0.044381385449068694,1.365995705014502,0.32643795307339973,0.2886362,0.5728544129813065
0.0045000000000000005,1.7994937500000001,1.0,415.553434603853,0.049741650280344385,1.3637758274271392,0.37637625807741554,0.2886317375,0.5780202403689421
0.005,1.799375,1.0,505.8151768790779,0.05507184825698025,1.3617227404986285,0.42337278844813814,0.28862675,0.5827699585655671
0.0055,1.79924375,1.0,597.2414429819406,0.06037214804280896,1.3598131398318516,0.4670665049286676,0.2886212375,0.5871635982281391
0.006,1.7991000000000001,1.0,688.9677676067396,0.06564271733691628,1.3580294527761496,0.5073379818739235,0.2886152,0.5912465272474836
0.006500000000000001,1.79894375,1.0,780.2855236342299,0.07088372289134157,1.3563581538477367,0.5442308194685499,0.2886086375,0.5950537824816098
0.007,1.798775,1.0,870.6085169352459,0.07609533058596404,1.3547884491459883,0.5778911711925785,0.28860155,0.5986133812263537
0.0075,1.79859375,1.0,959.4514176626135,0.08127770518813181,1.353311445592906,0.6085238850653076,0.2885939375,0.6019484133069228
0.008,1.7984,1.0,1046.4385569099707,0.0864310109241014,1.3519192594969571,0.6363619349049333,0.2885858,0.6050791925864585
0.0085,1.79819375,1.0,1131.2509573353755,0.0915554105915653,1.350605309783985,0.6616467109191133,0.2885771375,0.608022693722181
0.009000000000000001,1.797975,1.0,1213.6468339757612,0.09665106630115332,1.3493636070338664,0.684615041952492,0.28856795,0.6107942285723412
0.0095,1.79774375,1.0,1293.4684687961064,0.10171813971971166,1.3481884146303327,0.7054916014826906,0.2885582375,0.6134082522870394
0.01,1.7975,1.0,1370.5751647277616,0.10675679070607835,1.3470749450801827,0.7244853374050193,0.288548,0.6158768574540441
0.0105,1.79724375,1.0,1444.8807659788533,0.11176717859212103,1.3460186573696034,0.7417873892428427,0.2885372375,0.6182113799494167
0.011,1.796975,1.0,1516.3533149226257,0.11674946248887717,1.3450151476337966,0.7575707942088851,0.28852595000000003,0.6204226655077474
0.0115,1.79669375,1.0,1584.9693088265917,0.1217037998731772,1.3440606070452716,0.7719913177951995,0.2885141375,0.62252008507538
0.012,1.7964,1.0,1650.723402643944,0.12663034701546425,1.3431515843103876,0.785188412421241,0.28850180000000003,0.6245120860499711
0.0125,1.79609375,1.0,1713.6433321742186,0.13152925972817858,1.3422847302650054,0.7972864316026649,0.2884889375,0.6264067711333308
0.013000000000000001,1.7957750000000001,1.0,1773.7873645606803,0.1364006939931645,1.3414567752322726,0.8083960433762493,0.28847555,0.6282119599744174
0.0135,1.79544375,1.0,1831.2034447913238,0.14124480378025894,1.340664938079259,0.8186157891322181,0.2884616375,0.6299343111079547
0.014,1.7951000000000001,1.0,1885.938578373695,0.1460617415278166,1.3399067538446436,0.8280333229071142,0.2884472,0.6315797152130002
0.0145,1.79474375,1.0,1938.0636667073893,0.15085165967419228,1.3391797575671065,0.8367265198802917,0.2884322375,0.6331539925278025
0.015,1.794375,1.0,1987.656137102318,0.15561470974280836,1.3384816471446903,0.8447646600327883,0.28841675,0.6346625463846217
0.0155,1.79399375,1.0,2034.8142268372571,0.1603510439071096,1.3378101029823453,0.8522093745416582,0.2884007375,0.6361107599587286
0.016,1.7936,1.0,2079.609655423144,0.16506081129560754,1.3371632640424571,0.8591156950277676,0.2883842,0.6375029763400394
0.0165,1.7931937500000001,1.0,2122.1145479289403,0.16974416010926102,1.3365394107280761,0.8655327328535144,0.2883671375,0.6388431920497426
0.017,1.792775,1.0,2162.41342270379,0.17440123854902886,1.3359368234422513,0.8715043379167503,0.28834955,0.6401353656107451
0.0175,1.7923437500000001,1.0,2200.593936536527,0.1790321939672957,1.3353538655580528,0.877069742828894,0.2883314375,0.6413832425231871
0.018000000000000002,1.7919,1.0,2236.7506387853355,0.1836371742696971,1.3347889323823443,0.8822640920568923,0.2883128,0.6425904679664862
0.0185,1.79144375,1.0,2270.962940617926,0.18821632506623484,1.334240660642773,0.8871189703890249,0.2882936375,0.6437601427713096
0.019,1.790975,1.0,2303.3011036056973,0.19276979009585982,1.3337078526661124,0.8916627928256791,0.28827395,0.6448949906536106
0.0195,1.79049375,1.0,2333.8418791825793,0.19729771309752292,1.3331893107791357,0.8959211271886416,0.2882537375,0.6459977142299889
0.02,1.79,1.0,2362.667964016268,0.20180023781017503,1.3326838373086165,0.8999170171943237,0.288233,0.6470709961531058
0.0205,1.78949375,1.0,2389.8441422355486,0.20627750580635584,1.3321904613559234,0.9036713156581934,0.2882117375,0.6481170197198302
0.021,1.7889769952933023,1.0,2415.566402159486,0.21072966196116025,1.331707888396086,0.9072028077601414,0.28819003380231867,0.6491386376779649
0.021500000000000002,1.7884590580358686,1.0,2440.2998622901405,0.21515684576271552,1.3312356092133555,0.9105286714741262,0.2881682804375065,0.6501370254753102
0.022,1.7879411207784348,1.0,2464.128369263438,0.21955919607673988,1.3307731914930263,0.9136645003919345,0.2881465270726943,0.6511131881043296
0.0225,1.787423183521001,1.0,2487.0823343612174,0.22393685176895173,1.3303202029203929,0.9166244574021352,0.28812477370788203,0.6520681235415513
0.023,1.7869052462635673,1.0,2509.193618692507,0.22828995170506927,1.3298762111807498,0.9194214256914001,0.28810302034306984,0.6530028230134992
0.0235,1.7863873090061335,1.0,2530.493955280976,0.23261863400408753,1.3294407980216776,0.9220671442340324,0.2880812669782576,0.6539182417054855
0.024,1.7858693717486998,1.0,2551.015263389086,0.23692303655363414,1.3290135552229603,0.9245723248991451,0.2880595136134454,0.6548153076516201
0.0245,1.785351434491266,1.0,2570.7875227920504,0.2412032957845967,1.3285941035859075,0.9269467592380518,0.28803776024863315,0.6556948822977484
0.025,1.784833497233832,1.0,2589.837449063556,0.24545954591650776,1.3281821040872321,0.929199411971738,0.28801600688382095,0.6565577377451439
0.025500000000000002,1.7843155599763982,1.0,2608.192674082588,0.24969192116889982,1.3277772177036482,0.9313384968243689,0.2879942535190087,0.6574046414364005
0.026000000000000002,1.7837976227189645,1.0,2625.8816912934026,0.25390055576130544,1.3273791054118687,0.9333715496369096,0.2879725001541965,0.6582363563128972
0.0265,1.7832796854615307,1.0,2642.9233414732876,0.25808557731722953,1.3269875248295113,0.9353055057937822,0.28795074678938426,0.6590534394319825
0.027,1.782761748204097,1.0,2659.3580807672984,0.26224712705367986,1.3266020403242527,0.9371467209529263,0.28792899342457207,0.6598568471174593
0.0275,1.7822438109466632,1.0,2675.215199708131,0.26638533941138803,1.326222326537568,0.9389010627613943,0.2879072400597599,0.6606473012385723
0.028,1.7817258736892294,1.0,2690.514054846708,0.2705003422784487,1.325848155016903,0.9405739537321192,0.2878854866949476,0.6614253184696439
0.0285,1.7812079364317956,1.0,2705.2744969585374,0.2745922635429566,1.325479297309702,0.9421704002273938,0.28786373333013543,0.6621914127001995
0.029,1.7806899991743619,1.0,2719.516843549356,0.27866123109300645,1.3251155249634103,0.9436950298222989,0.2878419799653232,0.6629460951140501
0.029500000000000002,1.7801720619169281,1.0,2733.2618525190283,0.282707372816693,1.3247566095254732,0.9451521248656202,0.287820226600511,0.6636898742650488
0.03,1.7796541246594944,1.0,2746.530696981605,0.28673081660211086,1.3244023225433357,0.9465456526666751,0.28779847323569874,0.6644232561495205
0.0305,1.7791361874020606,1.0,2759.3449412435093,0.29073169033735485,1.3240524355644427,0.9478792926840401,0.28777671987088654,0.6651467442753594
0.031,1.7786182501446268,1.0,2771.7265179377505,0.2947101219105196,1.3237067201362396,0.9491564610465867,0.28775496650607435,0.6658608397278005
0.0315,1.778100312887193,1.0,2783.696327974957,0.2986662379325038,1.323364960212211,0.9503803338405823,0.2877332131412621,0.6665660156471784
0.032,1.7775823756297593,1.0,2795.266324955504,0.30260015793950074,1.323027022936873,0.9515538738903494,0.2877114597764499,0.6672625715961127
0.0325,1.7770644383723255,1.0,2806.4663930242623,0.3065120191192472,1.3226926167135775,0.952679826590416,0.28768970641163766,0.6679511323933168
0.033,1.7765465011148918,1.0,2817.309210255257,0.3104019419351898,1.3223616069953272,0.9537607646123553,0.28766795304682546,0.6686319972429535
0.0335,1.776028563857458,1.0,2827.807649388831,0.314270046850775,1.3220338592351244,0.9547990883208136,0.2876461996820132,0.6693054639863907
0.034,1.7755106266000242,1.0,2837.9747679004854,0.3181164543294492,1.3217092388859717,0.955797039375189,0.287624446317201,0.6699718291307679
0.0345,1.7749926893425905,1.0,2847.823798470382,0.32194128483465906,1.3213876114008716,0.9567567131046223,0.2876026929523888,0.6706313878764106
0.035,1.7744747520851565,1.0,2857.368139854716,0.325744658829851,1.321068842232827,0.9576800697798578,0.2875809395875766,0.671284434143087
0.035500000000000004,1.7739568148277227,1.0,2866.6213481588265,0.3295266967784715,1.3207527968348398,0.958568944891869,0.28755918622276433,0.6719312605951147
0.036000000000000004,1.773438877570289,1.0,2875.5971285106057,0.33328751914396715,1.3204393406599133,0.9594250585351228,0.28753743285795214,0.6725721586653062
0.0365,1.7729209403128552,1.0,2884.309327136042,0.3370272463897844,1.3201283391610497,0.9602500239827533,0.28751567949313994,0.6732074185777678
0.037,1.7724030030554214,1.0,2892.767724828303,0.3407459927040607,1.3198196948659073,0.9610453578317543,0.2874939261283277,0.6738372537496107
0.0375,1.7718850657979877,1.0,2900.9845076029437,0.3444438781509206,1.3195132900002438,0.9618124840481562,0.2874721727635155,0.6744619180906255
0.038,1.771367128540554,1.0,2908.9760989752153,0.348121029541589,1.3192089704506507,0.9625527392084615,0.28745041939870325,0.6750817384688637
0.0385,1.7708491912831201,1.0,2916.7501155539503,0.35177755978484887,1.3189066606564557,0.9632673852974055,0.28742866603389106,0.6756968807045544
0.039,1.7703312540256864,1.0,2924.314247337634,0.355413581789483,1.3186062850569862,0.9639576104755803,0.2874069126690788,0.6763075099559517
0.0395,1.7698133167682526,1.0,2931.6762544113126,0.3590292084642744,1.3183077680915691,0.9646245341968964,0.2873851593042666,0.6769137907288388
0.04,1.7692953795108188,1.0,2938.8439637688634,0.36262455271800587,1.3180110341995321,0.9652692119185762,0.2873634059394544,0.6775158868856633
0.0405,1.768777442253385,1.0,2945.8252662629316,0.36619972745946033,1.3177160078202024,0.9658926394401157,0.28734165257464217,0.6781139616543148
0.041,1.7682595049959513,1.0,2952.6281136811917,0.36975484559742067,1.317422613392907,0.9664957569040585,0.2873198992098299,0.6787081776365341
0.0415,1.7677415677385175,1.0,2959.260515948715,0.3732900200406698,1.3171307753569734,0.9670794524882066,0.2872981458450177,0.6792986968159593
0.042,1.7672236304810838,1.0,2965.7305384572915,0.3768053636979906,1.3168404181517293,0.9676445658160356,0.28727639248020553,0.6798856805658079
0.0425,1.76670569322365,1.0,2972.0462995215557,0.38030098947816593,1.3165514662165014,0.9681918911095027,0.2872546391153933,0.6804692896561964
0.043000000000000003,1.7661877559662162,1.0,2978.213023543046,0.3837770023295696,1.3162638696123736,0.9687221809138828,0.2872328857505811,0.6810496325822945
0.043500000000000004,1.7656698187087825,1.0,2984.2365460761866,0.38723351184873744,1.3159775734032395,0.9692361483029023,0.28721113238576884,0.6816268275070165
0.044,1.7651518814513487,1.0,2990.1285718194267,0.390670644287516,1.3156924720048215,0.9697344675644919,0.28718937902095665,0.6822010941310108
0.0445,1.764633944193915,1.0,2995.893247109237,0.3940885044882023,1.3154085259132131,0.97021777992193,0.2871676256561444,0.6827725184351211
0.045,1.7641160069364812,1.0,3001.534744896917,0.39748719729309306,1.3151256956245085,0.9706866937454345,0.2871458722913322,0.6833411860879133
0.0455,1.7635980696790472,1.0,3007.0572637535975,0.4008668275444851,1.314843941634801,0.971141786555228,0.28712411892652,0.6839071824485397
0.046,1.7630801324216134,1.0,3012.4650269104545,0.40422750008467523,1.3145632244401848,0.9715836068837745,0.28710236556170776,0.6844705925694959
0.0465,1.7625621951641797,1.0,3017.762281333497,0.4075693197559602,1.3142835045367536,0.9720126760083487,0.2870806121968955,0.6850315011992869
0.047,1.762044257906746,1.0,3022.953296832532,0.41089239140063694,1.3140047424206012,0.9724294895641268,0.2870588588320833,0.685589992784987
0.0475,1.7615263206493121,1.0,3028.042365204982,0.41419681986100215,1.3137268985878212,0.9728345190470885,0.2870371054672711,0.6861461514747034
0.048,1.7610083833918784,1.0,3033.0337994143597,0.41748270997935266,1.3134499335345076,0.9732282132152293,0.2870153521024589,0.6867000611199388
0.0485,1.7604904461344446,1.0,3037.9319328034553,0.42075016659798536,1.313173807756754,0.9736109993958496,0.2869935987376467,0.687251805277856
0.049,1.7599725088770108,1.0,3042.741118341497,0.423999294559197,1.3128984817506544,0.9739832847060256,0.28697184537283443,0.687801467213442
0.0495,1.759454571619577,1.0,3047.4657279069143,0.4272301987052844,1.3126239160123025,0.9743454571927782,0.28695009200802224,0.6883491299015715
0.05,1.7589366343621433,1.0,3052.1075247609124,0.43044296985527275,1.3123500936176622,0.9746978867797278,0.28692833864321,0.6888948310492273
0.0505,1.7584186971047095,1.0,3056.669805287292,0.43363771170915316,1.3120769845575988,0.9750409270298641,0.2869065852783978,0.689438634277539
0.051000000000000004,1.7579007598472758,1.0,3061.159645131575,0.4368145486001608,1.3118045265045983,0.975374915601664,0.2868848319135856,0.68998066725524
0.051500000000000004,1.757382822589842,1.0,3065.579096667413,0.43997357666536363,1.3115327004238704,0.9757001745597231,0.28686307854877335,0.6905209711945506
0.052000000000000005,1.7568648853324083,1.0,3069.9302213803617,0.4431148920418297,1.3112614872806247,0.976017011599508,0.28684132518396116,0.6910595871679002
0.0525,1.7563469480749745,1.0,3074.215089604905,0.446238590866627,1.3109908680400713,0.9763257208132355,0.2868195718191489,0.691596556108683
0.053,1.7558290108175407,1.0,3078.4357802702502,0.4493447692768237,1.3107208236674193,0.9766265834085297,0.2867978184543367,0.6921319188119915
0.0535,1.755311073560107,1.0,3082.5943806531723,0.4524335234094877,1.310451335127879,0.9769198683831513,0.28677606508952447,0.6926657159353231
0.054,1.7547931363026732,1.0,3086.692986140051,0.4555049494016871,1.3101823833866597,0.9772058331588337,0.2867543117247123,0.6931979879992707
0.0545,1.7542751990452392,1.0,3090.7336999955396,0.45855914339049,1.3099139494089715,0.9774847241770366,0.2867325583599,0.6937287753881806
0.055,1.7537572617878054,1.0,3094.7186331408748,0.46159620151296427,1.309646014160024,0.9777567774591983,0.28671080499508783,0.6942581183507981
0.0555,1.7532393245303717,1.0,3098.649903938613,0.464616219906178,1.3093785586050266,0.9780222191338926,0.2866890516302756,0.6947860570008805
0.056,1.752721387272938,1.0,3102.5296379867978,0.4676192947071993,1.3091115637091892,0.9782812659330918,0.2866672982654634,0.6953126313177929
0.0565,1.7522034500155041,1.0,3106.3599679201106,0.4706055220530962,1.3088450104377218,0.9785341256595969,0.2866455449006512,0.6958378811470776
0.057,1.7516855127580704,1.0,3110.143033219478,0.4735749980809366,1.308578879755834,0.978780997627526,0.28662379153583895,0.696361846201003
0.0575,1.7511675755006366,1.0,3113.880980030126,0.4765278189277887,1.3083131526287355,0.9790220730776219,0.28660203817102675,0.6968845660590882
0.058,1.7506496382432029,1.0,3117.575960986834,0.47946408073072044,1.3080478100216357,0.9792575355690112,0.2865802848062145,0.6974060801686041
0.0585,1.750131700985769,1.0,3121.2250280055205,0.482383820732329,1.307782876310177,0.9794875587897246,0.2865585314414023,0.6979263426346756
0.059000000000000004,1.7496137637283353,1.0,3124.8354530517586,0.4852872064834364,1.3075182890006298,0.9797123157157342,0.28653677807659006,0.6984454780935112
0.059500000000000004,1.7490958264709016,1.0,3128.4083120442833,0.4881743265863145,1.307254038357887,0.9799319688263819,0.28651502471177787,0.6989635073749048
0.06,1.7485778892134678,1.0,3131.9445088509037,0.49104526748169697,1.3069901161355422,0.9801466742085999,0.28649327134696567,0.6994804483261682
0.0605,1.748059951956034,1.0,3135.4449502639995,0.49390011561031766,1.306726514087189,0.9803565819509091,0.2864715179821534,0.6999963187369942
0.061,1.7475420146986003,1.0,3138.9105459416496,0.4967389574129102,1.3064632239664211,0.9805618364199253,0.2864497646173412,0.7005111363396276
0.0615,1.7470240774411665,1.0,3142.342208349356,0.4995618793302083,1.306200237526832,0.980762576522085,0.286428011252529,0.7010249188090296
0.062,1.7465061401837327,1.0,3145.7408527040457,0.5023689678029457,1.3059375465220153,0.9809589359514808,0.2864062578877168,0.7015376837630412
0.0625,1.745988202926299,1.0,3149.107396919161,0.5051603092718563,1.3056751427055644,0.9811510434246481,0.28638450452290454,0.7020494487625409
0.063,1.7454702656688652,1.0,3152.4427615516092,0.5079359901776734,1.305413017831073,0.9813390229030787,0.28636275115809234,0.7025602313115966
0.0635,1.7449523284114314,1.0,3155.747869749797,0.5106960969611312,1.3051511636521345,0.9815229938041897,0.28634099779328015,0.7030700488576156
0.064,1.7444343911539977,1.0,3159.0236472033116,0.5134407160629632,1.3048895719223426,0.9817030712014306,0.2863192444284679,0.7035789187914883
0.0645,1.743916453896564,1.0,3162.2710220945014,0.516169933923903,1.3046282343952909,0.9818793660141594,0.28629749106365565,0.7040868584477288
0.065,1.74339851663913,1.0,3165.490925051138,0.5188838369846844,1.304367142824573,0.9820519851878837,0.28627573769884346,0.7045938851046112
0.0655,1.7428805793816962,1.0,3168.6842891004126,0.5215825116860413,1.3041062889637822,0.982221031865423,0.28625398433403126,0.7051000159843004
0.066,1.7423626421242624,1.0,3171.8520496249275,0.5242660444687072,1.3038456645665122,0.9823866055495066,0.286232230969219,0.7056052682529801
0.0665,1.7418447048668286,1.0,3174.99514432024,0.5269345217734159,1.3035852613863568,0.9825488022573011,0.28621047760440677,0.706109659020974
0.067,1.7413267676093949,1.0,3178.1145131532367,0.5295880300409012,1.303325071176909,0.9827077146673155,0.28618872423959457,0.7066132053428669
0.0675,1.740808830351961,1.0,3181.211098322617,0.5322266557118968,1.303065085691763,0.9828634322591162,0.2861669708747824,0.707115924217616
0.068,1.7402908930945273,1.0,3184.285844220639,0.5348504852271362,1.302805296684512,0.9830160414462468,0.28614521750997013,0.7076178325886627
0.0685,1.7397729558370936,1.0,3187.3388046543137,0.5374595800112818,1.3025457034180494,0.9831656245009464,0.28612346414515794,0.7081189328548395
0.069,1.7392550185796598,1.0,3190.370210215065,0.5400540178854237,1.3022863036725103,0.9833122618742228,0.28610171078034574,0.7086192302678919
0.0695,1.738737081322226,1.0,3193.3820956622185,0.542633925853022,1.3020270800729705,0.9834560336059593,0.2860799574155335,0.7091187592557253
0.07,1.7382191440647923,1.0,3196.37484783198,0.545199380651068,1.3017680291210174,0.9835970146610369,0.28605820405072124,0.7096175274247984
