Time [s],Phi [rad],STIM [ ],Fsee [N],Gamma [ ],Lcerel [ ],q [ ],Lmtc [m],fisomrel [ ]
0.0,1.8,1.0,18.02521396702927,0.0002442921100042284,1.37933324727427,0.0050155088201260705,0.288653,0.5411552535470583
0.0005,1.79999375,1.0,18.410631084977496,0.005852131133296578,1.3792875426941893,0.013603743039808325,0.2886527375,0.5412658161894246
0.001,1.799975,1.0,21.9262076155035,0.01142851461349077,1.378906973341812,0.03683991002519028,0.28865195,0.5421859233193476
0.0015,1.79994375,1.0,31.75351324570832,0.016973618992295072,1.3779882231639018,0.07228039975647363,0.2886506375,0.5444033901447589
0.002,1.7999,1.0,55.01527407042739,0.022487619719564002,1.3762757867053,0.11670157099437171,0.2886488,0.5485221056738125
0.0025,1.79984375,1.0,99.49275389599568,0.027970691262178667,1.373821469287546,0.16673005368826296,0.28864643749999996,0.5543925672822079
0.003,1.7997750000000001,1.0,164.02468487727285,0.03342300710980541,1.37110010262022,0.21950206546101264,0.28864354999999997,0.5608568680971369
0.0035,1.79969375,1.0,241.1358766150138,0.03884473977616712,1.3684787701284127,0.27282130685970557,0.2886401375,0.5670388901934069
0.004,1.7996,1.0,325.1327491768282,0.04423606080925007,1.3660592699017646,0.3250532895130261,0.2886362,0.5727060297161577
0.0045000000000000005,1.7994937500000001,1.0,413.05913551472463,0.04959714079668368,1.363834021082443,0.37506294412488345,0.2886317375,0.577885220353892
0.005,1.799375,1.0,503.2782945631632,0.05492814935756592,1.3617763741471856,0.4221448114162887,0.28862675,0.5826462216483279
0.0055,1.79924375,1.0,594.6865260752946,0.06022925518046021,1.3598628396042771,0.46593008668989455,0.2886212375,0.5870495429590126
0.006,1.7991000000000001,1.0,686.4155812503536,0.06550062599078027,1.3580756699158647,0.5062939131720399,0.2886152,0.591140990479288
0.006500000000000001,1.79894375,1.0,777.752335706187,0.07074242856133012,1.356401254210534,0.543276369545041,0.2886086375,0.5949558226950203
0.007,1.798775,1.0,868.1096631911205,0.0759548288122105,1.3548286957025262,0.5770214593066909,0.28860155,0.5985223109248855
0.0075,1.79859375,1.0,956.9966157577472,0.08113799150749115,1.3533491047324575,0.6077329271541432,0.2885939375,0.601863552885111
0.008,1.7984,1.0,1044.0375051947144,0.08629208092981352,1.3519545275400149,0.635643260640386,0.2885858,0.6050000336227197
0.0085,1.79819375,1.0,1128.910896426831,0.09141725990221447,1.3506383665090194,0.6609938263092335,0.2885771375,0.6079487752930057
0.009000000000000001,1.797975,1.0,1211.3712527938496,0.0965136904953745,1.3493946409988902,0.684021705464702,0.28856795,0.6107250792131909
0.0095,1.79774375,1.0,1291.260529085537,0.10158153447224753,1.3482175809827053,0.7049519480833889,0.2885582375,0.6133434830821209
0.01,1.7975,1.0,1368.4397353747017,0.10662095176890359,1.3471023475948967,0.7239939434285227,0.288548,0.6158161999174475
0.0105,1.79724375,1.0,1442.818493542911,0.11163210172806073,1.3460444308138704,0.7413393400337948,0.2885372375,0.6181545022407668
0.011,1.796975,1.0,1514.3608267224863,0.11661514306455771,1.345039454315266,0.7571616713081283,0.28852595000000003,0.6203691803757128
0.0115,1.79669375,1.0,1583.055022031216,0.12157023391562433,1.3440834480469204,0.7716170892015134,0.2885141375,0.6224699642223924
0.012,1.7964,1.0,1648.8870475819024,0.12649753034219727,1.3431730540963065,0.7848455199411909,0.28850180000000003,0.6244650986677727
0.0125,1.79609375,1.0,1711.8813861169178,0.13139718821297397,1.342304947950928,0.7969717175560592,0.2884889375,0.6263626358683436
0.013000000000000001,1.7957750000000001,1.0,1772.0893079020873,0.1362693628347608,1.3414759262894198,0.8081067254020053,0.28847555,0.6281702543519858
0.0135,1.79544375,1.0,1829.5764972842614,0.14111420937521574,1.3406829968887213,0.8183493156517732,0.2884616375,0.6298950753536975
0.014,1.7951000000000001,1.0,1884.3834224587467,0.14593187992791387,1.3399237631704717,0.827787452182562,0.2884472,0.6315428419388556
0.0145,1.79474375,1.0,1936.5741143269142,0.15072252658643018,1.339195828556311,0.8364992836359875,0.2884322375,0.6331192279655538
0.015,1.794375,1.0,1986.2319445963255,0.15548630126033486,1.3384968198583973,0.8445542841580601,0.28841675,0.6346297925566062
0.0155,1.79399375,1.0,2033.4418588828466,0.16022335477424063,1.3378245530143555,0.8520143223831703,0.2884007375,0.6360796281270755
0.016,1.7936,1.0,2078.2998460697017,0.16493383844936838,1.3371769058824858,0.8589345176691502,0.2883842,0.6374736420265092
0.0165,1.7931937500000001,1.0,2120.8704213541746,0.16961789993876122,1.336552237908419,0.8653641608883974,0.2883671375,0.6388156605830198
0.017,1.792775,1.0,2161.2301832233156,0.1742756868954623,1.3359489085377858,0.8713472596307034,0.28834955,0.6401094733809645
0.0175,1.7923437500000001,1.0,2199.4668021218486,0.17890734697251473,1.3353652772162177,0.8769231626416065,0.2883314375,0.6413588355793669
0.018000000000000002,1.7919,1.0,2235.6642743548814,0.18351302641697703,1.3347998419332519,0.882127143715249,0.2883128,0.64256717423938
0.0185,1.79144375,1.0,2269.921731685699,0.18809287307657185,1.3342510376000307,0.8869908256368304,0.2882936375,0.6437380225232872
0.019,1.790975,1.0,2302.31248852663,0.1926470310851697,1.333717635977117,0.8915426995987439,0.28827395,0.6448741691257793
0.0195,1.79049375,1.0,2332.9061504563465,0.1971756434133584,1.3331985098754073,0.8958084247239811,0.2882537375,0.6459781665076789
0.02,1.79,1.0,2361.778081805833,0.20167885303172572,1.3326925321057983,0.8998111254573302,0.288233,0.6470525480900267
0.0205,1.78949375,1.0,2389.0089218957505,0.20615680291085953,1.332198575479186,0.9035716760823533,0.2882117375,0.6480998292397944
0.021,1.788975,1.0,2414.6698608405654,0.21060963401666846,1.3317156506985517,0.9071089792498334,0.28818995000000003,0.6491222164592999
0.021500000000000002,1.78844375,1.0,2438.848460913802,0.21503749015711945,1.3312426505231814,0.9104401296286847,0.2881676375,0.6501221507473773
0.022,1.7879,1.0,2461.6065066553624,0.21944051046468668,1.330778752539931,0.9135806886395469,0.2881448,0.651101456849895
0.0225,1.78734375,1.0,2483.0016564248112,0.2238188329351044,1.3303232031478955,0.916544804920766,0.28812143749999997,0.6520618031317416
0.023,1.786775,1.0,2503.094284806597,0.2281725955641068,1.3298752487461696,0.9193453501357463,0.28809755,0.6530048477826937
0.0235,1.78619375,1.0,2521.947255091631,0.23250193634742797,1.329434135733848,0.9219940518957563,0.28807313749999996,0.6539322392005507
0.024,1.7856,1.0,2539.621353119048,0.2368069924731742,1.3289991515129567,0.924501618311183,0.2880482,0.65484553030534
0.0245,1.78499375,1.0,2556.1737937796747,0.2410879002729023,1.3285696359507255,0.9268778430511366,0.2880227375,0.6557461553928817
0.025,1.784375,1.0,2571.675856826682,0.24534479816271554,1.3281448137500138,0.9291316689561605,0.28799675,0.6566357819163544
0.025500000000000002,1.78374375,1.0,2586.1704140210345,0.24957781884287844,1.3277241912077378,0.9312713354655701,0.2879702375,0.6575154799018946
0.026000000000000002,1.7831000000000001,1.0,2599.701597343169,0.25378709501365554,1.3273072746208139,0.9333044021830376,0.2879432,0.6583863137126758
0.0265,1.78244375,1.0,2612.3146939319504,0.2579727593753114,1.3268935702861582,0.9352378141435507,0.2879156375,0.6592493421733692
0.027,1.781775,1.0,2624.056046428219,0.2621349446281106,1.3264825845006871,0.9370779600191358,0.28788755,0.6601056186790552
0.0275,1.7810937500000001,1.0,2634.9729587224806,0.26627378347231767,1.3260738235613168,0.9388307241030368,0.2878589375,0.6609561912885946
0.028,1.7804,1.0,2645.108058779036,0.2703894046577621,1.3256668449953353,0.940501538733328,0.2878298,0.6618019963991846
0.0285,1.77969375,1.0,2654.50932558241,0.274481943778197,1.3252611639175862,0.9420954161236749,0.2878001375,0.6626440537212281
0.029,1.778975,1.0,2663.209823745974,0.2785515283203383,1.324856439209871,0.9436170064151326,0.28776995,0.6634830800506487
0.029500000000000002,1.7782437500000001,1.0,2671.242745059078,0.282598285494439,1.324452333570273,0.94507061312893,0.2877392375,0.6643197807423609
0.03,1.7775,1.0,2678.641772895075,0.2866223425107519,1.3240485096968748,0.9464602230525487,0.287708,0.665154857663375
0.0305,1.77674375,1.0,2685.44103662588,0.2906238265795301,1.3236446302877596,0.947789533571101,0.2876762375,0.6659890092024854
0.031,1.775975,1.0,2691.6750685584498,0.29460286491102644,1.3232403580410101,0.9490619773172106,0.28764395,0.6668229302727027
0.0315,1.7751937500000001,1.0,2697.372679740573,0.2985595806642932,1.3228354112811322,0.9502807500962074,0.2876111375,0.6676571977772392
0.032,1.7744,1.0,2702.561115324179,0.3024940981666699,1.322429525385768,0.9514488273539066,0.2875778,0.6684923506361873
0.0325,1.77359375,1.0,2707.284356800563,0.3064065543755523,1.322022285394363,0.9525689655301939,0.2875439375,0.6693292337671919
0.033,1.772775,1.0,2711.562361055921,0.3102970695425183,1.3216134980813767,0.9536437550735287,0.28750955,0.670168232945983
0.0335,1.7719437500000002,1.0,2715.4152671455086,0.3141657639191456,1.3212029702212689,0.9546756126952662,0.2874746375,0.6710097318910544
0.034,1.7711000000000001,1.0,2718.863379151976,0.318012757757012,1.3207905085884986,0.9556667950900153,0.2874392,0.671854112243407
0.0345,1.7702437500000001,1.0,2721.9271498717667,0.3218381713076954,1.3203759199575258,0.9566194114182308,0.2874032375,0.6727017535439064
0.035,1.7693750000000001,1.0,2724.6271653285894,0.32564212482277344,1.3199590111028097,0.9575354346757097,0.28736675,0.6735530332082658
0.035500000000000004,1.76849375,1.0,2726.984130115674,0.32942473855382404,1.3195395887988102,0.9584167120608824,0.2873297375,0.6744083264996407
0.036000000000000004,1.7676,1.0,2729.0188535648067,0.3331861327524249,1.3191174598199864,0.9592649744386659,0.2872922,0.6752680064988501
0.0365,1.76669375,1.0,2730.7522367440833,0.3369264276701539,1.3186924309407981,0.9600818449889409,0.2872541375,0.6761324440722086
0.037,1.765775,1.0,2732.2052602826725,0.3406457435585888,1.3182643089357047,0.9608688471182847,0.28721555,0.6770020078369845
0.0375,1.76484375,1.0,2733.385136737295,0.34434419183372145,1.3178330262562128,0.9616274221091465,0.2871764375,0.6778768093776071
0.038,1.7639,1.0,2734.3187920503788,0.3480218989843822,1.3173983367622717,0.9623589106632097,0.28713679999999997,0.6787573208563251
0.0385,1.76294375,1.0,2735.023962744269,0.35167898270084286,1.3169600782518185,0.9630645800802651,0.28709663750000003,0.6796438418195189
0.039,1.761975,1.0,2735.5116738625306,0.35531555581734015,1.3165181498185288,0.9637456280689747,0.28705595,0.6805365460314265
0.0395,1.7609937500000001,1.0,2735.7929812693756,0.35893173116811083,1.3160724505560781,0.9644031828873341,0.2870147375,0.6814356058656745
0.04,1.76,1.0,2735.878967343176,0.36252762158739177,1.3156228795581424,0.9650383081087741,0.286973,0.682341192281334
0.0405,1.7589937500000001,1.0,2735.780736896234,0.36610333990941957,1.3151693359183974,0.9656520070124848,0.2869307375,0.6832534747983304
0.041,1.757975,1.0,2735.509413319736,0.3696589989684311,1.3147117187305188,0.9662452266312388,0.28688795,0.6841726214722028
0.0415,1.75694375,1.0,2735.0761349551904,0.373194711598663,1.3142499270881822,0.9668188614867299,0.2868446375,0.6850987988682148
0.042,1.7559,1.0,2734.492051690855,0.3767105906343522,1.3137838600850633,0.9673737570395484,0.28680079999999997,0.6860321720348133
0.0425,1.75484375,1.0,2733.7683217846125,0.38020674890973527,1.313313416814838,0.9679107128783011,0.2867564375,0.6869729044764401
0.043000000000000003,1.753775,1.0,2732.9106765472284,0.38368329270021084,1.3128385457184775,0.968430488640583,0.28671155,0.6879210596707528
0.043500000000000004,1.75269375,1.0,2731.9314621722915,0.38714033771145795,1.3123591351966706,0.9689338002861135,0.28666613750000003,0.6888768197040436
0.044,1.7516,1.0,2730.8422969564504,0.3905779971602345,1.3118750802638994,0.9694213262756578,0.2866202,0.6898403517550584
0.0445,1.75049375,1.0,2729.6492484811915,0.3939963770174977,1.311386326368398,0.9698937126280199,0.2865737375,0.690811721144112
0.045,1.7493750000000001,1.0,2728.3583852725474,0.39739558325420454,1.3108928189584006,0.9703515721210078,0.28652675,0.691790992092153
0.0455,1.74824375,1.0,2726.97577568973,0.4007757218413121,1.3103945034821418,0.970795486321745,0.2864792375,0.6927782277043197
0.046,1.7471,1.0,2725.5074868799734,0.40413689874977754,1.3098913253878555,0.971226007474002,0.2864312,0.6937734899533109
0.0465,1.7459437500000001,1.0,2723.959583798734,0.4074792199505579,1.3093832301237762,0.9716436602539031,0.28638263750000004,0.6947768396625591
0.047,1.744775,1.0,2722.338128296263,0.4108027914146103,1.3088701631381383,0.9720489434043487,0.28633355,0.6957883364892214
0.0475,1.74359375,1.0,2720.6491782704247,0.41410771911289174,1.3083520698791757,0.9724423312576077,0.28628393750000003,0.6968080389069768
0.048,1.7424,1.0,2718.8987868845065,0.41739410901635937,1.3078288957951232,0.9728242751547078,0.2862338,0.6978360041886327
0.0485,1.74119375,1.0,2717.0900222448645,0.4206620593198525,1.307300613479495,0.9731952056987673,0.2861831375,0.6988722351885395
0.049,1.739975,1.0,2715.2282670821573,0.4239116761720437,1.306767174413108,0.9735555325559091,0.28613195,0.6999167751996104
0.0495,1.73874375,1.0,2713.3223484808627,0.42714307460229994,1.3062284986246213,0.9739056450108322,0.2860802375,0.7009697277745864
0.05,1.7375,1.0,2711.375095122135,0.4303563533863318,1.305684560747021,0.9742459159233032,0.286028,0.7020310883957295
0.0505,1.73624375,1.0,2709.3893327130177,0.43355161129984987,1.3051353354132926,0.974576700937665,0.2859752375,0.7031008516652341
0.051000000000000004,1.734975,1.0,2707.367883778455,0.4367289471185648,1.3045807972564212,0.974898339428216,0.28592195,0.7041790112966928
0.051500000000000004,1.73369375,1.0,2705.3135674671134,0.4398884596181871,1.3040209209093925,0.9752111553845827,0.2858681375,0.7052655601065209
0.052000000000000005,1.7324,1.0,2703.2291993714025,0.44303024757442744,1.3034556810051923,0.9755154582413831,0.2858138,0.7063604900053412
0.0525,1.73109375,1.0,2701.1175913624834,0.4461544097629963,1.3028850521768056,0.9758115436561456,0.28575893750000003,0.7074637919893295
0.053,1.729775,1.0,2698.9815514383686,0.4492610449596045,1.3023090090572185,0.9760996942391299,0.28570355000000003,0.7085754561315134
0.0535,1.72844375,1.0,2696.823883587398,0.4523502519399624,1.3017275262794161,0.9763801802384103,0.2856476375,0.7096954715730366
0.054,1.7271,1.0,2694.647387665492,0.4554221294797808,1.301140578476384,0.9766532601833272,0.2855912,0.7108238265143774
0.0545,1.7257437500000001,1.0,2692.4548592875417,0.45847677635477013,1.3005481402811079,0.9769191814891617,0.2855342375,0.711960508206529
0.055,1.724375,1.0,2690.249089733232,0.4615142913406411,1.2999501863265732,0.9771781810256813,0.28547675,0.7131055029421365
0.0555,1.72299375,1.0,2688.033953038098,0.4645347430078684,1.2993466812878636,0.9774304822055281,0.2854187375,0.7142588150572138
0.056,1.7216,1.0,2685.8121148101754,0.467538267179604,1.298737600855652,0.977676306051163,0.2853602,0.7154204267697998
0.0565,1.72019375,1.0,2683.5846358962976,0.4705249556443169,1.2981229353916897,0.977915861133423,0.28530113749999997,0.716590291433171
0.057,1.718775,1.0,2681.352577516842,0.473494899088241,1.2975026752385457,0.9781493473438795,0.28524155,0.717768361689759
0.0575,1.71734375,1.0,2679.116999158557,0.4764481881976102,1.2968768107387882,0.9783769564216754,0.2851814375,0.7189545894310131
0.058,1.7159,1.0,2676.8789585648597,0.47938491365865843,1.2962453322349863,0.978598872349327,0.2851208,0.7201489257939496
0.0585,1.71444375,1.0,2674.6395117283205,0.4823051661576195,1.295608230069708,0.9788152717262504,0.2850596375,0.7213513211576995
0.059000000000000004,1.7129750000000001,1.0,2672.399712884705,0.48520903638072727,1.2949654945855222,0.9790263241214323,0.28499795,0.7225617251400455
0.059500000000000004,1.71149375,1.0,2670.160614509726,0.4880966150142157,1.2943171161249973,0.9792321924065683,0.2849357375,0.7237800865939568
0.06,1.71,1.0,2667.9232673171855,0.4909679927443185,1.2936630850307023,0.97943303307089,0.284873,0.7250063536041153
0.0605,1.7084937500000001,1.0,2665.6887202598978,0.4938232602572698,1.2930033916452053,0.9796289965188223,0.2848097375,0.7262404734834389
0.061,1.7069750000000001,1.0,2663.458020532163,0.4966625082393033,1.292338026311075,0.9798202273515334,0.28474595,0.7274823927695957
0.0615,1.7054437500000001,1.0,2661.2322135742065,0.499485827376653,1.2916669793708804,0.9800068646333638,0.2846816375,0.7287320572215129
0.062,1.7039,1.0,2659.0123430795975,0.5022933083555526,1.2909902411671896,0.9801890421440557,0.2846168,0.7299894118158827
0.0625,1.70234375,1.0,2656.7994510034737,0.5050850418622361,1.2903078020425713,0.9803668886176388,0.2845514375,0.7312544007436582
0.063,1.7007750000000001,1.0,2654.594577573637,0.5078611185829375,1.2896196523395942,0.9805405279687763,0.28448555,0.7325269674065453
0.0635,1.69919375,1.0,2652.394286536583,0.5106215877211171,1.2889258236617174,0.9807100785542663,0.28441913750000003,0.7338069783845607
0.064,1.6976,1.0,2650.201422797694,0.5133665654847418,1.2882262897237104,0.9808756563729408,0.2843522,0.7350944066074736
0.0645,1.69599375,1.0,2648.01975162712,0.5160961700450155,1.287521015703507,0.9810373728484085,0.2842847375,0.736389239568953
0.065,1.694375,1.0,2645.8493125796267,0.518810482593691,1.2868100011186006,0.9811953344057057,0.28421675,0.7376914006962638
0.0655,1.69274375,1.0,2643.6901451844915,0.5215095843225209,1.2860932454864835,0.9813496436419853,0.2841482375,0.7390008127774575
0.066,1.6911,1.0,2641.542288946625,0.5241935564232578,1.2853707483246495,0.9815003994900736,0.2840792,0.7403173979611912
0.0665,1.6894437500000001,1.0,2639.405783347856,0.5268624800876545,1.284642509150591,0.981647697373904,0.2840096375,0.7416410777565551
0.067,1.687775,1.0,2637.2806678471893,0.5295164365074635,1.2839085274818016,0.981791629356282,0.28393955,0.7429717730328926
0.0675,1.68609375,1.0,2635.166981882881,0.5321555068744374,1.283168802835774,0.9819322842794157,0.2838689375,0.7443094040196256
0.068,1.6844000000000001,1.0,2633.0647648727363,0.5347797723803288,1.2824233347300011,0.9820697478986101,0.2837978,0.745653890306077
0.0685,1.68269375,1.0,2630.97405621532,0.5373893142168905,1.2816721226819765,0.9822041030095027,0.2837261375,0.7470051508412934
0.069,1.680975,1.0,2628.8948952912083,0.539984213575875,1.2809151662091929,0.9823354295691976,0.28365395,0.7483631039338697
0.0695,1.67924375,1.0,2626.8273214638493,0.542564551649035,1.2801524648291431,0.9824638048116254,0.28358123749999997,0.7497276672517721
0.07,1.6775,1.0,2624.771374080793,0.5451304096281231,1.2793840180593206,0.9825893033574474,0.283508,0.7510987578221596
0.07050000000000001,1.67574375,1.0,2622.7270924744676,0.547681868704892,1.2786098254172182,0.9827119973187909,0.2834342375,0.7524762920312091
0.07100000000000001,1.673975,1.0,2620.6945159636107,0.5502190100710943,1.277829886420329,0.9828319563990964,0.28335995,0.7538601856239384
0.07150000000000001,1.67219375,1.0,2618.6736838541237,0.5527419149184826,1.277044200586146,0.9829492479883326,0.2832851375,0.7552503537040285
0.07200000000000001,1.6704,1.0,2616.6646354402533,0.5552506644388095,1.2762527674321622,0.9830639372538258,0.2832098,0.756646710733647
0.0725,1.66859375,1.0,2614.6674100055843,0.5577453398238278,1.2754555864758708,0.9831760872269306,0.2831339375,0.7580491705332719
0.073,1.6667750000000001,1.0,2612.682046824361,0.56022602226529,1.2746526572347647,0.9832857588857599,0.28305755,0.7594576462815141
0.0735,1.66494375,1.0,2610.7085851622346,0.5626927929549487,1.273843979226337,0.9833930112341772,0.2829806375,0.7608720505149411
0.074,1.6631,1.0,2608.7470642776584,0.5651457330845566,1.2730295519680808,0.9834979013772429,0.2829032,0.7622922951278989
0.0745,1.6612437500000001,1.0,2606.794655167677,0.5675849205532966,1.2722094016553884,0.9836004855818222,0.2828252375,0.7637182450587227
0.075,1.659375,1.0,2604.8569823548596,0.5700104274258482,1.271383475867048,0.9837008145685343,0.28274675,0.7651499012318859
0.0755,1.65749375,1.0,2602.932870593804,0.5724223294845113,1.270551785396798,0.9837989403964154,0.2826677375,0.7665871537583067
