Time [s],Phi [rad],STIM [ ],Fsee [N],Gamma [ ],Lcerel [ ],q [ ],Lmtc [m],fisomrel [ ]
0.0,1.8,1.0,17.967831060146846,1.0000240948405348e-05,1.379339670833956,0.005000026653046807,0.288653,0.5411397134298019
0.0005,1.79999375,1.0,18.27710083563926,0.005619153456299407,1.3793023481684292,0.01294051382565601,0.2886527375,0.541230002148966
0.001,1.799975,1.0,21.618683522631773,0.011196843757035026,1.378938271272543,0.03560857514777881,0.28865195,0.5421102887913793
0.0015,1.79994375,1.0,31.069442500457008,0.016743247626089492,1.3780461861362387,0.07060170222234176,0.2886506375,0.5442636516194015
0.002,1.7999,1.0,53.58233763287476,0.022258540554748216,1.3763681349441075,0.11471783290223907,0.2886488,0.5483004687458359
0.0025,1.79984375,1.0,97.11850603307649,0.027742897050206668,1.3739351880580044,0.16457467045407784,0.28864643749999996,0.5541214130485488
0.003,1.7997750000000001,1.0,160.95756444696778,0.033196490643291936,1.3712143663037213,0.21728022469194272,0.28864354999999997,0.5605863974799956
0.0035,1.79969375,1.0,237.6826216653794,0.03861949388805114,1.3685847560992783,0.2706126604842968,0.2886401375,0.5667897881735827
0.004,1.7996,1.0,321.4660134600529,0.04401207837253435,1.3661561124694934,0.322915581032315,0.2886362,0.5724799148636087
0.0045000000000000005,1.7994937500000001,1.0,409.2669840503029,0.04937441472397897,1.363922832164873,0.3730342985241028,0.2886317375,0.5776791206285001
0.005,1.799375,1.0,499.41272545044126,0.054706672599896596,1.3618583588944981,0.4202472658683762,0.28862675,0.5824570411294023
0.0055,1.79924375,1.0,590.7896433896514,0.060009020735565,1.3599388501551661,0.4641735186088478,0.2886212375,0.5868750770056661
0.006,1.7991000000000001,1.0,682.5173376297297,0.0652816268871232,1.3581464287566463,0.5046797980049128,0.2886152,0.590979386380295
0.006500000000000001,1.79894375,1.0,773.8805754824222,0.0705246578872306,1.3564672652659295,0.5418006105866238,0.2886086375,0.5948057678374663
0.007,1.798775,1.0,864.2850903367288,0.07573827962864652,1.3548904066406822,0.575676646363656,0.28860155,0.598382650747485
0.0075,1.79859375,1.0,953.2425972077244,0.08092265707397059,1.3534067886997463,0.606509793987013,0.2885939375,0.6017335513422606
0.008,1.7984,1.0,1040.3435175368572,0.0860779538268541,1.3520088662634233,0.6345320735530678,0.2885858,0.6048780550763373
0.0085,1.79819375,1.0,1125.3134261710857,0.09120433404183184,1.3506892528425645,0.6599843399158889,0.2885771375,0.6078349743007777
0.009000000000000001,1.797975,1.0,1207.9000512647724,0.09630195967783234,1.3494420368175344,0.6831041041753326,0.28856795,0.6106194607934086
0.0095,1.79774375,1.0,1287.8929302436334,0.1013709912108761,1.3482621142160434,0.7041173919800944,0.2885582375,0.6132445784495267
0.01,1.7975,1.0,1365.167377092175,0.10641158911698362,1.3471443810658006,0.7232341522057645,0.288548,0.6157231463470735
0.0105,1.79724375,1.0,1439.6580620212203,0.11142391339221434,1.3460839643747537,0.740646602554355,0.2885372375,0.6180672500084636
0.011,1.796975,1.0,1511.3204994026103,0.11640812283186144,1.3450765745898654,0.7565290778638621,0.28852595000000003,0.6202874925680009
0.0115,1.79669375,1.0,1580.1199516001996,0.12136437461478145,1.3441184957323244,0.7710385607239444,0.2885141375,0.6223930513230937
0.012,1.7964,1.0,1646.0572880567595,0.1262928254166357,1.3432061617120001,0.7843155383727942,0.28850180000000003,0.6243926357235856
0.0125,1.79609375,1.0,1709.1736987574736,0.13119363191381683,1.3423360379632265,0.7964852823269621,0.2884889375,0.6262947611978327
0.013000000000000001,1.7957750000000001,1.0,1769.5058942677986,0.13606694906453537,1.3415050802049917,0.8076594545864033,0.28847555,0.6281067608232851
0.0135,1.79544375,1.0,1827.0902173020443,0.14091293037862956,1.3407106096440726,0.8179374344327869,0.2884616375,0.6298350780483558
0.014,1.7951000000000001,1.0,1881.9906545545198,0.14573172936593767,1.3399499474872463,0.8274075043865834,0.2884472,0.631486075266003
0.0145,1.79474375,1.0,1934.280681926656,0.15052349835493747,1.3392205848085172,0.8361481580468006,0.2884322375,0.6330656723283405
0.015,1.794375,1.0,1984.055476759665,0.15528839039147554,1.338520017491321,0.8442291711475227,0.28841675,0.6345797122374864
0.0155,1.79399375,1.0,2031.3742518010733,0.1600265550304878,1.3378463326168637,0.8517128089593712,0.2884007375,0.6360327026062995
0.016,1.7936,1.0,2076.3111441373803,0.16473814176402196,1.337197626700729,0.8586545203012959,0.2883842,0.6374290833781753
0.0165,1.7931937500000001,1.0,2118.9545789333774,0.16942330006743192,1.336571997966033,0.8651037431872569,0.2883671375,0.6387732467638796
0.017,1.792775,1.0,2159.388795727407,0.1740821777099493,1.3359677222540915,0.8711046669026071,0.28834955,0.6400691632761404
0.0175,1.7923437500000001,1.0,2197.7200941823503,0.1787149243439392,1.3353829675169624,0.876696772901594,0.2883314375,0.6413209984040693
0.018000000000000002,1.7919,1.0,2234.014660802696,0.18332168500476909,1.3348164128461706,0.881915551419652,0.2883128,0.642531791099562
0.0185,1.79144375,1.0,2268.346896934971,0.18790260472780623,1.3342667373332417,0.8867928303690964,0.2882936375,0.6437045545682065
0.019,1.790975,1.0,2300.7987397658244,0.19245782854841814,1.3337326200697008,0.8913571995448976,0.28827395,0.6448422777468519
0.0195,1.79049375,1.0,2331.4518832117874,0.19698750055272532,1.3332128103570187,0.89563439846267,0.2882537375,0.6459477774680407
0.02,1.79,1.0,2360.3934754584125,0.20149176534240582,1.332706063975841,0.8996476254001747,0.288233,0.647023836076861
0.0205,1.78949375,1.0,2387.703306808647,0.20597076621884775,1.3322112623056905,0.9034178483340275,0.2882117375,0.6480729502463638
0.021,1.788975,1.0,2413.442934761458,0.21042464337710512,1.3317275092617749,0.9069640711571387,0.28818995000000003,0.6490971288232752
0.021500000000000002,1.78844375,1.0,2437.677821186287,0.21485353701223198,1.3312539087593016,0.9103035015576392,0.2881676375,0.6500983671290954
0.022,1.7879,1.0,2460.4770095598933,0.2192575873192823,1.330789564713479,0.9134517455501122,0.2881448,0.6510786475659025
0.0225,1.78734375,1.0,2481.9113726758796,0.22363693425084338,1.3303335948357917,0.9164229813310011,0.28812143749999997,0.6520399111060683
0.023,1.786775,1.0,2502.0404522797717,0.22799171545854732,1.3298852525712834,0.9192301322999421,0.28809755,0.6529838014540196
0.0235,1.78619375,1.0,2520.9484803890996,0.2323220723896443,1.3294435813418322,0.9218849350369122,0.28807313749999996,0.6539123938541698
0.024,1.7856,1.0,2538.6836983773524,0.23662814007889638,1.3290079881280703,0.9243981620952674,0.2880482,0.6548269889920904
0.0245,1.78499375,1.0,2555.296174005309,0.2409100535610656,1.3285778799106305,0.926779656056621,0.2880227375,0.6557288802086585
0.025,1.784375,1.0,2570.837651181715,0.2451679478709141,1.3281526636701453,0.9290384225666929,0.28799675,0.6566193537187134
0.025500000000000002,1.78374375,1.0,2585.361407521061,0.24940195804320386,1.3277317463872471,0.9311827129331,0.2879702375,0.6574996888072868
0.026000000000000002,1.7831000000000001,1.0,2598.919417284626,0.25361221848309273,1.3273145602160177,0.9332201013870588,0.2879432,0.6583711054547032
0.0265,1.78244375,1.0,2611.557393677666,0.25779886188552437,1.3269006070700347,0.9351575566042709,0.2879156375,0.659234671866208
0.027,1.781775,1.0,2623.3382297464104,0.26196202440211686,1.3264892394396293,0.9370014669963765,0.28788755,0.660091761894555
0.0275,1.7810937500000001,1.0,2634.2984422753943,0.2661018356885239,1.3260800640648944,0.9387577524834321,0.2878589375,0.6609432137099309
0.028,1.7804,1.0,2644.4753246723785,0.2702184254003994,1.325672687685924,0.9404318718003388,0.2878298,0.6617898612736819
0.0285,1.77969375,1.0,2653.9068803475143,0.27431192319339714,1.3252667170428107,0.9420288644759885,0.2878001375,0.6626325343883677
0.029,1.778975,1.0,2662.6317595206324,0.27838245872317097,1.3248617588756488,0.9435533884851587,0.28776995,0.6634720587379458
0.029500000000000002,1.7782437500000001,1.0,2670.6891994579164,0.2824301616453746,1.3244574199245314,0.9450097540663178,0.2877392375,0.6643092559181005
0.03,1.7775,1.0,2678.11461964765,0.28645515888415524,1.3240533468330564,0.9464019585158114,0.287708,0.6651448609894606
0.0305,1.77674375,1.0,2684.945474780951,0.2904575812914725,1.323649171768385,0.9477337082905226,0.2876762375,0.6659796352475718
0.031,1.775975,1.0,2691.211220892849,0.2944375548200946,1.323244603944797,0.949008452521147,0.28764395,0.6668141773615159
0.0315,1.7751937500000001,1.0,2696.9394151798692,0.29839520381902096,1.3228393730351629,0.9502293985107106,0.2876111375,0.667649040874563
0.032,1.7744,1.0,2702.157911713919,0.30233065263725106,1.3224332087123527,0.9513995297900125,0.2875778,0.6684847765288788
0.0325,1.77359375,1.0,2706.894832391966,0.30624402562378433,1.322025840649237,0.952521624471303,0.2875439375,0.6693219322517612
0.033,1.772775,1.0,2711.178539505838,0.3101354471276202,1.3216169985186856,0.9535982718852357,0.28750955,0.6701610531372186
0.0335,1.7719437500000002,1.0,2715.0318145435226,0.31400503694932363,1.3212064648116104,0.9546318924789823,0.2874746375,0.6710025732245781
0.034,1.7711000000000001,1.0,2718.4781075173332,0.31785291737383764,1.320794017529831,0.9556247465590747,0.2874392,0.6718469334090259
0.0345,1.7702437500000001,1.0,2721.554355395793,0.3216792226426508,1.320379313345127,0.9565789363403244,0.2874032375,0.672694820090896
0.035,1.7693750000000001,1.0,2724.2768640652903,0.3254840702776069,1.3199621981573835,0.9574964444896895,0.28736675,0.6735465298159926
0.035500000000000004,1.76849375,1.0,2726.6620451085505,0.32926757780054966,1.3195425178664861,0.9583791271755122,0.2873297375,0.6744023573837576
0.036000000000000004,1.7676,1.0,2728.726405017571,0.3330298627333228,1.3191201183723202,0.9592287235894303,0.2872922,0.67526259582282
0.0365,1.76669375,1.0,2730.4865349339657,0.3367710425977701,1.3186948455747711,0.9600468646477373,0.2872541375,0.6761275363650281
0.037,1.765775,1.0,2731.959100914907,0.34049123491573524,1.3182665453737241,0.9608350809513199,0.28721555,0.6769974684179694
0.0375,1.76484375,1.0,2733.1608347261204,0.34419055720906205,1.3178350636690646,0.9615948100749109,0.2871764375,0.6778726795359749
0.038,1.7639,1.0,2734.1085251611535,0.3478691269995942,1.317400246360678,0.9623274032489585,0.28713679999999997,0.6787534553896075
0.0385,1.76294375,1.0,2734.819009887385,0.3515270618091754,1.3169619393484497,0.9630341314908472,0.28709663750000003,0.6796400797336406
0.039,1.761975,1.0,2735.3091678179694,0.3551644791596495,1.316519988532265,0.963716191236349,0.28705595,0.6805328343735169
0.0395,1.7609937500000001,1.0,2735.590908889922,0.3587814895376664,1.3160742852378144,0.9643747123159471,0.2870147375,0.6814319075618773
0.04,1.76,1.0,2735.678366635655,0.3623782121096033,1.3156247008492168,0.9650107596087208,0.286973,0.6823375261920995
0.0405,1.7589937500000001,1.0,2735.586812034254,0.36595476693102663,1.3151710966287662,0.965625336831261,0.2869307375,0.6832499357456024
0.041,1.757975,1.0,2735.325371308586,0.3695112640107534,1.3147133897924543,0.9662193944542137,0.28688795,0.6841692674915265
0.0415,1.75694375,1.0,2734.903185346808,0.37304781335760073,1.314251497556273,0.9667938302336143,0.2868446375,0.6850956514146678
0.042,1.7559,1.0,2734.32940694741,0.3765645249803856,1.3137853371362134,0.9673494926751304,0.28680079999999997,0.6860292161935999
0.0425,1.75484375,1.0,2733.6131982156776,0.3800615088879251,1.3133148257482674,0.967887184236373,0.2867564375,0.6869700891783572
0.043000000000000003,1.753775,1.0,2732.7637281120956,0.38353887508903634,1.3128398806084265,0.9684076642895522,0.28671155,0.6879183963676833
0.043500000000000004,1.75269375,1.0,2731.7901701533956,0.3869967335925363,1.3123604189326825,0.9689116518646553,0.28666613750000003,0.6888742623858389
0.044,1.7516,1.0,2730.7017002643265,0.39043519440724195,1.3118763579370267,0.9693998281914467,0.2866202,0.6898378104589783
0.0445,1.75049375,1.0,2729.507494782984,0.39385436754197056,1.311387614837451,0.969872839056901,0.2865737375,0.6908091623910818
0.045,1.7493750000000001,1.0,2728.2167286165386,0.39725436300553907,1.310894106849947,0.9703312969931606,0.28652675,0.6917884385394573
0.0455,1.74824375,1.0,2726.831928626229,0.4006352701383277,1.310395811619854,0.9707757849603565,0.2864792375,0.6927756381659826
0.046,1.7471,1.0,2725.3655568782424,0.4039972206818304,1.3098926164393079,0.9712068557066511,0.2864312,0.6937709383813776
0.0465,1.7459437500000001,1.0,2723.8240998246097,0.40734032439702894,1.3093844628890041,0.9716250352828146,0.28638263750000004,0.6947744072795996
0.047,1.744775,1.0,2722.211818514988,0.4106646831663901,1.3088713127688731,0.9720308241373673,0.28633355,0.6957860719018908
0.0475,1.74359375,1.0,2720.5329719396486,0.41397039887238074,1.3083531278788454,0.9724246982312621,0.28628393750000003,0.6968059583141979
0.048,1.7424,1.0,2718.7918164958714,0.4172575733974677,1.3078298700188515,0.9728071104615998,0.2862338,0.6978340915949521
0.0485,1.74119375,1.0,2716.9926054876687,0.42052630862411783,1.307301500988822,0.9731784919897901,0.2861831375,0.6988704958227583
0.049,1.739975,1.0,2715.139588656887,0.42377670643479803,1.3067679825886875,0.9735392534813967,0.28613195,0.6999151940639883
0.0495,1.73874375,1.0,2713.237011747315,0.4270088687119751,1.3062292766183785,0.973889786264294,0.2860802375,0.7009682083602826
0.05,1.7375,1.0,2711.289116101143,0.43022289733811586,1.3056853448778256,0.9742304634112113,0.286028,0.7020295597159593
0.0505,1.73624375,1.0,2709.300138287125,0.4334188941956872,1.3051361491669593,0.9745616407522396,0.2859752375,0.703099268085329
0.051000000000000004,1.734975,1.0,2707.2743097620732,0.43659696116715596,1.30458165128571,0.9748836578224165,0.28592195,0.7041773523599175
0.051500000000000004,1.73369375,1.0,2705.215856563727,0.439757200134989,1.3040218130340084,0.9751968387490962,0.2858681375,0.7052638303555945
0.052000000000000005,1.7324,1.0,2703.128999036693,0.4428997129816531,1.303456596211785,0.9755014930834225,0.2858138,0.7063587187996099
0.0525,1.73109375,1.0,2701.0179515904483,0.4460246015896151,1.3028859626189704,0.9757979165798893,0.28575893750000003,0.7074620333175372
0.053,1.729775,1.0,2698.8787427319653,0.44913193620369457,1.3023099488269443,0.9760863933255208,0.28570355000000003,0.7085736442610023
0.0535,1.72844375,1.0,2696.7214824924495,0.45222185144922405,1.301728462697535,0.9763671936483317,0.2856476375,0.7096936696370608
0.054,1.7271,1.0,2694.549665246274,0.4552944492401532,1.301141472470281,0.9766405764713534,0.2855912,0.7108221095613234
0.0545,1.7257437500000001,1.0,2692.3647008631165,0.45834982250417744,1.3005489654125035,0.9769067898444026,0.2855342375,0.7119589266245974
0.055,1.724375,1.0,2690.1679970722425,0.4613880641689922,1.2999509287915225,0.9771660712578406,0.28547675,0.7131040826438233
0.0555,1.72299375,1.0,2687.960959427976,0.4644092671622929,1.2993473498746588,0.9774186481776466,0.2854187375,0.7142575386575849
0.056,1.7216,1.0,2685.7449912789266,0.467413524411775,1.2987382159292327,0.9776647385490944,0.2853602,0.7154192549216172
0.0565,1.72019375,1.0,2683.5214937406854,0.4704009288451339,1.2981235142225647,0.9779045512711174,0.28530113749999997,0.7165891909042994
0.057,1.718775,1.0,2681.291865672337,0.473371573390065,1.2975032320219753,0.9781382866432937,0.28524155,0.717767305282139
0.0575,1.71734375,1.0,2679.0575036560836,0.4763255509742638,1.296877356594785,0.9783661367872365,0.2851814375,0.7189535559352449
0.058,1.7159,1.0,2676.8198019810457,0.47926295452542567,1.2962458752083146,0.9785882860440556,0.2851208,0.7201478999427924
0.0585,1.71444375,1.0,2674.580152630366,0.48218387697124604,1.2956087751298841,0.978804911349421,0.2850596375,0.7213502935784745
0.059000000000000004,1.7129750000000001,1.0,2672.339945271906,0.48508841123942037,1.2949660436268144,0.9790161825876644,0.28499795,0.7225606923059444
0.059500000000000004,1.71149375,1.0,2670.1005672526053,0.4879766502576441,1.2943176679664257,0.9792222629262428,0.2849357375,0.7237790507742501
0.06,1.71,1.0,2667.863403596237,0.49084868695361256,1.2936636354160387,0.979423309131796,0.284873,0.7250053228132523
0.0605,1.7084937500000001,1.0,2665.6298370052136,0.49370461425502127,1.2930039332429737,0.979619471868951,0.2848097375,0.7262394614290403
0.061,1.7069750000000001,1.0,2663.40124786547,0.49654452508956565,1.2923385487145513,0.9798108959829355,0.28474595,0.72748141879933
0.0615,1.7054437500000001,1.0,2661.1763881855923,0.49936848918765964,1.2916674932725454,0.9799977202308296,0.2846816375,0.7287311013013702
0.062,1.7039,1.0,2658.9569967402367,0.5021766076557909,1.2909907508715668,0.9801800791098986,0.2846168,0.7299884659030669
0.0625,1.70234375,1.0,2656.7461957160353,0.5049689917895946,1.2903082926938119,0.9803581021356117,0.2845514375,0.731253492325268
0.063,1.7007750000000001,1.0,2654.5441709515594,0.5077457255495437,1.2896201169382329,0.980531913284311,0.28448555,0.7325261092623863
0.0635,1.69919375,1.0,2652.351107995767,0.5105068928961111,1.2889262218037827,0.9807016319357791,0.28441913750000003,0.7338062447518858
0.064,1.6976,1.0,2650.167192110443,0.5132525777897695,1.2882266054894134,0.9808673730759104,0.2843522,0.7350938261736291
0.0645,1.69599375,1.0,2647.9926082737475,0.5159828641909923,1.2875212661940776,0.9810292474890011,0.2842847375,0.7363887802492168
0.065,1.694375,1.0,2645.827541182839,0.518697836060252,1.286810202116728,0.9811873619402621,0.28421675,0.7376910330413318
0.0655,1.69274375,1.0,2643.672175257271,0.5213975773580217,1.286093411456317,0.9813418193491199,0.2841482375,0.7390005099530821
0.066,1.6911,1.0,2641.5266946421793,0.5240821720447744,1.2853708924117973,0.9814927189538319,0.2840792,0.7403171357273419
0.0665,1.6894437500000001,1.0,2639.3912832115993,0.5267517040809829,1.2846426431821212,0.9816401564679078,0.2840096375,0.7416408344460959
0.067,1.687775,1.0,2637.266124571503,0.5294062574271202,1.2839086619662412,0.9817842242288071,0.28393955,0.7429715295297787
0.0675,1.68609375,1.0,2635.1514020638124,0.5320459160436591,1.28316894696311,0.9819250113393351,0.2838689375,0.744309143736618
0.068,1.6844000000000001,1.0,2633.047298769415,0.5346707638910727,1.28242349637168,0.9820626038021532,0.2837978,0.7456535991619758
0.0685,1.68269375,1.0,2630.9539975118073,0.5372808849298338,1.281672308390904,0.9821970846477807,0.2837261375,0.7470048172376895
0.069,1.680975,1.0,2628.8716808610616,0.5398763631204153,1.2809153812197343,0.9823285340564429,0.28365395,0.7483627187314139
0.0695,1.67924375,1.0,2626.800531137127,0.5424572824232903,1.2801527130571233,0.9824570294741072,0.28358123749999997,0.7497272237459602
0.07,1.6775,1.0,2624.740730413942,0.5450237267989315,1.2793843021020237,0.9825826457230162,0.283508,0.7510982517186389
0.07050000000000001,1.67574375,1.0,2622.692460523135,0.5475757802078121,1.278610146553388,0.9827054551070187,0.2834342375,0.7524757214205986
0.07100000000000001,1.673975,1.0,2620.660567477163,0.550113522198546,1.277830201340879,0.98282552525542,0.28335995,0.7538596276240006
0.07150000000000001,1.67219375,1.0,2618.6396784545827,0.5526370298144171,1.2770445161563406,0.9829429257097795,0.2832851375,0.7552497961342447
0.07200000000000001,1.6704,1.0,2616.630445684208,0.5551463824227776,1.2762530848349716,0.983057721345213,0.2832098,0.75664615152794
0.0725,1.66859375,1.0,2614.6337474590932,0.557641659372961,1.2754558991036138,0.9831699748129605,0.2831339375,0.7580486213297823
0.073,1.6667750000000001,1.0,2612.6464514200093,0.5601229397124265,1.27465298793881,0.9832797483727768,0.28305755,0.7594570670162114
0.0735,1.66494375,1.0,2610.6696768253328,0.5625903023713416,1.2738443408463564,0.9833871005160687,0.2829806375,0.7608714189618131
0.074,1.6631,1.0,2608.705778287208,0.5650438250473924,1.2730299358306958,0.9834920872686987,0.2829032,0.7622916267228512
0.0745,1.6612437500000001,1.0,2606.755530371349,0.5674835852006133,1.2722097655601068,0.9835947634892496,0.2828252375,0.7637176133090297
0.075,1.659375,1.0,2604.818529112501,0.5699096601136796,1.271383833658536,0.9836951827601612,0.28274675,0.7651492819795794
0.0755,1.65749375,1.0,2602.8937231367413,0.5723221269243792,1.2705521497822951,0.9837933972276632,0.2826677375,0.7665865250260796
