Time [s],Phi [rad],STIM [ ],Fsee [N],Gamma [ ],Lcerel [ ],q [ ],Lmtc [m],fisomrel [ ]
0.0,1.8,1.0,18.080935198352012,0.0003415782153930683,1.3793270195034248,0.005030239742744426,0.288653,0.541170319753343
0.0005,1.79999375,1.0,18.49654412734134,0.005948871540574923,1.3792780452584148,0.013886633430193512,0.2886527375,0.541288789492844
0.001,1.799975,1.0,22.08422643666346,0.011524712383583446,1.3788909765067334,0.03735733005536366,0.28865195,0.5422245788321874
0.0015,1.79994375,1.0,32.071530156462245,0.01706927716897925,1.377961489506464,0.07298179755108442,0.2886506375,0.5444678330677777
0.002,1.7999,1.0,55.6493788715122,0.0225827413294574,1.3762353048193925,0.11752782377445703,0.2886488,0.5486192455594988
0.0025,1.79984375,1.0,100.5164045876201,0.028065279315098324,1.3737728587256914,0.16762613110724373,0.28864643749999996,0.5545084505102817
0.003,1.7997750000000001,1.0,165.32972496277742,0.033517064598517665,1.3710518083799437,0.22042467490409726,0.28864354999999997,0.5609711591134361
0.0035,1.79969375,1.0,242.5956461503737,0.038938269676708465,1.3684341957832784,0.2737376601490393,0.2886401375,0.5671436332191611
0.004,1.7996,1.0,326.67722362479094,0.044329066080987814,1.3660186421389966,0.3259396555912504,0.2886362,0.5728008724704245
0.0045000000000000005,1.7994937500000001,1.0,414.65280128972967,0.04968962438249717,1.3637968196027848,0.3759037016382243,0.2886317375,0.577971537139346
0.005,1.799375,1.0,504.8996478047671,0.055020114183589264,1.36174208066667,0.4229309799951967,0.28862675,0.5827253414379732
0.0055,1.79924375,1.0,596.319494233379,0.060320704156457204,1.3598310618490206,0.46665766898731187,0.2886212375,0.587122471073362
0.006,1.7991000000000001,1.0,688.0473809567068,0.06559156201038656,1.3580461100279906,0.5069623834607219,0.2886152,0.5912084920083676
0.006500000000000001,1.79894375,1.0,779.3720658022718,0.07083285450030188,1.3563736875961452,0.5438874728560498,0.2886086375,0.595018478281649
0.007,1.798775,1.0,869.7086893444774,0.0760447475358711,1.3548029351129007,0.5775783024142923,0.28860155,0.598580603428797
0.0075,1.79859375,1.0,958.5674899996193,0.08122740585529634,1.3533250003790793,0.6082393504715002,0.2885939375,0.6019178702395523
0.008,1.7984,1.0,1045.5745863280886,0.08638099373179314,1.35193194533422,0.6361033993507972,0.2885858,0.6050507201953814
0.0085,1.79819375,1.0,1130.409837058942,0.09150567398325948,1.3506171878777973,0.6614118351556312,0.2885771375,0.6079961338158975
0.009000000000000001,1.797975,1.0,1212.829414837336,0.09660160863283958,1.3493747514972458,0.6844015835786986,0.28856795,0.6107693973732071
0.0095,1.79774375,1.0,1292.6737577084934,0.10166895944383333,1.348198909703013,0.7052974658610062,0.2885582375,0.613384946688881
0.01,1.7975,1.0,1369.806256464739,0.10670788638857279,1.3470848094966827,0.7243085631318315,0.288548,0.6158550223745263
0.0105,1.79724375,1.0,1444.137961006643,0.1117185487213434,1.3460279385241223,0.7416262076776714,0.2885372375,0.6181908984717674
0.011,1.796975,1.0,1515.6287753809595,0.1167011050509113,1.345023984558514,0.7574236532641843,0.28852595000000003,0.6204032209163468
0.0115,1.79669375,1.0,1584.2745035182706,0.12165571377274989,1.3440688957693125,0.7718567172577735,0.2885141375,0.6225018972069067
0.012,1.7964,1.0,1650.0604087704814,0.12658253083045626,1.3431593343398405,0.7850650627581859,0.28850180000000003,0.6244951251767781
0.0125,1.79609375,1.0,1713.010257463322,0.13148171204889947,1.3422919933686535,0.7971732026373571,0.2884889375,0.6263909160577605
0.013000000000000001,1.7957750000000001,1.0,1773.1627682155442,0.13635341235357756,1.341463818501262,0.8082920148050321,0.28847555,0.6281966219851315
0.0135,1.79544375,1.0,1830.6006468670064,0.14119778727461824,1.3406716280862678,0.818519990705042,0.2884616375,0.629919776202333
0.014,1.7951000000000001,1.0,1885.3678172242703,0.14601498910549898,1.3399129956593516,0.8279449069627545,0.2884472,0.6315661842534618
0.0145,1.79474375,1.0,1937.5221088426804,0.15080516971436342,1.33918559979599,0.836644783598492,0.2884322375,0.6331413548821252
0.015,1.794375,1.0,1987.1424537639248,0.15556848096935513,1.3384871190716612,0.8446889724237004,0.28841675,0.6346507341280838
0.0155,1.79399375,1.0,2034.3101169678998,0.1603050735488012,1.3378154103246156,0.8521392296950345,0.2884007375,0.6360993257245269
0.016,1.7936,1.0,2079.1260669893113,0.1650150986499101,1.3371683001804362,0.8590505460799293,0.2883842,0.6374921471729441
0.0165,1.7931937500000001,1.0,2121.6571707341345,0.16969870417034652,1.3365441259362998,0.8654721088167155,0.2883671375,0.6388330717403443
0.017,1.792775,1.0,2161.9798405751267,0.1743560378277212,1.3359412514784097,0.871447841858222,0.28834955,0.6401258786834181
0.0175,1.7923437500000001,1.0,2200.18152316039,0.17898724733964497,1.335358040692969,0.8770170201351036,0.2883314375,0.641374312954633
0.018000000000000002,1.7919,1.0,2236.343179366201,0.1835924787614181,1.3347930238840306,0.8822148595125066,0.2883128,0.6425817320108
0.0185,1.79144375,1.0,2270.5704368603006,0.1881718800752981,1.3342445721572318,0.8870729065090657,0.2882936375,0.6437518047940978
0.019,1.790975,1.0,2302.929971574756,0.19272559472624934,1.3337115251335518,0.8916196177049859,0.28827395,0.6448871747227003
0.0195,1.79049375,1.0,2333.493348714011,0.19725376601348757,1.333192736946934,0.8958806010290805,0.2882537375,0.645990433819551
0.02,1.79,1.0,2362.337936027949,0.20175653723622852,1.332687061731323,0.8998789355667611,0.288233,0.6470641548360299
0.0205,1.78949375,1.0,2389.541914272711,0.20623405096571537,1.3321933973215305,0.903635464736761,0.2882117375,0.6481107996683029
0.021,1.788975,1.0,2415.1838634759188,0.21068644964686548,1.3317106836233736,0.9071690439489206,0.28818995000000003,0.6491327243944967
0.021500000000000002,1.78844375,1.0,2439.341632848997,0.21511387556019798,1.331237908415944,0.9104967591797393,0.2881676375,0.6501321684573682
0.022,1.7879,1.0,2462.073369327191,0.21951646718465392,1.3307742841956953,0.9136341519883281,0.2881448,0.6511108830192136
0.0225,1.78734375,1.0,2483.440252006726,0.22389436299917445,1.3303190234590812,0.9165953401147672,0.28812143749999997,0.652070608230354
0.023,1.786775,1.0,2503.5062406768616,0.22824770148270065,1.3298713387025547,0.9193931676287418,0.28809755,0.6530130736689554
0.0235,1.78619375,1.0,2522.337838101764,0.2325766211141736,1.3294304424225691,0.9220393374706184,0.28807313749999996,0.6539399987412958
0.024,1.7856,1.0,2539.991151732676,0.23688125714838723,1.3289956669175245,0.92454454870422,0.2880482,0.6548528416756803
0.0245,1.78499375,1.0,2556.5388047778647,0.2411617504736325,1.3285662076205886,0.9269185567340728,0.2880227375,0.6557533393170416
0.025,1.784375,1.0,2572.027369223705,0.24541823477227118,1.328141522165043,0.9291703304706657,0.28799675,0.6566426703801295
0.025500000000000002,1.78374375,1.0,2586.5030950384353,0.24965084324033063,1.327721084696969,0.9313080905875177,0.2879702375,0.6575219727201599
0.026000000000000002,1.7831000000000001,1.0,2600.0135381278433,0.25385970907383826,1.3273043693624473,0.9333393797680115,0.2879432,0.6583923781768197
0.0265,1.78244375,1.0,2612.607448056563,0.25804496546882133,1.3268908503075592,0.935271127774313,0.2879156375,0.6592550127079113
0.027,1.781775,1.0,2624.334661900668,0.2622067456213073,1.3264800016783858,0.9371097094777248,0.28788755,0.6601109965053611
0.0275,1.7810937500000001,1.0,2635.235419824329,0.2663451791497337,1.3260713955347732,0.938861009963343,0.2878589375,0.6609612404783339
0.028,1.7804,1.0,2645.3622564361312,0.27046040166788327,1.3256644979213572,0.9405304431980936,0.2878298,0.661806871153158
0.0285,1.77969375,1.0,2654.75589966162,0.2745525439061594,1.3252588912674386,0.9421230228023582,0.2878001375,0.6626487680212901
0.029,1.778975,1.0,2663.4487250298557,0.2786217331909995,1.324854240877118,0.9436433934930359,0.28776995,0.663487634515789
0.029500000000000002,1.7782437500000001,1.0,2671.4736456000232,0.2826680968488408,1.3244502120544954,0.9450958534186623,0.2877392375,0.6643241705924521
0.03,1.7775,1.0,2678.864064215954,0.2866917622061207,1.3240464701036718,0.9464843844538076,0.287708,0.6651590727466522
0.0305,1.77674375,1.0,2685.653828244534,0.2906928565892765,1.3236426803287473,0.9478126794855378,0.2876762375,0.6659930340230367
0.031,1.775975,1.0,2691.877186797663,0.29467150732474556,1.3232385080338225,0.9490841670232837,0.28764395,0.6668267440180755
0.0315,1.7751937500000001,1.0,2697.567477037295,0.29862784098543094,1.3228336301660308,0.950302034638671,0.2876111375,0.6676608649037705
0.032,1.7744,1.0,2702.751633594866,0.3025619810395907,1.3224277850678434,0.9514692542986483,0.2875778,0.668495929260984
0.0325,1.77359375,1.0,2707.4657972114123,0.306474057662191,1.3220206294444934,0.9525885857293995,0.2875439375,0.6693326346051413
0.033,1.772775,1.0,2711.7315185497614,0.31036419224036804,1.3216119554503973,0.9536626146315146,0.28750955,0.6701713970388127
0.0335,1.7719437500000002,1.0,2715.5705371826784,0.3142325061612579,1.321201555239973,0.954693753331331,0.2874746375,0.6710126304573425
0.034,1.7711000000000001,1.0,2719.0047630544536,0.31807912081199674,1.3207892209676366,0.9556842544699018,0.2874392,0.6718567465273495
0.0345,1.7702437500000001,1.0,2722.0562589001947,0.3219041575797207,1.3203747447878063,0.9566362234571308,0.2874032375,0.6727041546624618
0.035,1.7693750000000001,1.0,2724.7472236232175,0.32570773785156587,1.3199579188548982,0.9575516298154587,0.28736675,0.6735552619963086
0.035500000000000004,1.76849375,1.0,2727.0999766300806,0.3294899830146685,1.31953853532333,0.9584323175237168,0.2873297375,0.6744104733527456
0.036000000000000004,1.7676,1.0,2729.1256753569064,0.3332510062808986,1.3191164887741735,0.9592800231448783,0.2872922,0.6752699827565141
0.0365,1.76669375,1.0,2730.8544246262704,0.3369909363518182,1.3186915023132464,0.9600963613052125,0.2872541375,0.6761343314838204
0.037,1.765775,1.0,2732.3079686059846,0.34070989467326834,1.3182633758269273,0.9608828534567507,0.28721555,0.6770039018088266
0.0375,1.76484375,1.0,2733.4992112655073,0.34440799584699544,1.317831990109833,0.9616409351049996,0.2871764375,0.677878909639104
0.038,1.7639,1.0,2734.441107171225,0.3480853544747459,1.31739722595658,0.962371955588223,0.28713679999999997,0.678759569372027
0.0385,1.76294375,1.0,2735.146655338518,0.35174208515826616,1.3169589641617854,0.9630771841923084,0.28709663750000003,0.679646093869541
0.039,1.761975,1.0,2735.628893397886,0.3553783024993027,1.3165170855200656,0.9637578157676656,0.28705595,0.6805386944320264
0.0395,1.7609937500000001,1.0,2735.90089207742,0.35899412109960177,1.3160714708260377,0.9644149758936542,0.2870147375,0.6814375807712538
0.04,1.76,1.0,2735.9757499988136,0.36258965556090994,1.3156220008743182,0.9650497256314389,0.286973,0.6823429609824359
0.0405,1.7589937500000001,1.0,2735.8665887897096,0.3661650204849736,1.3151685564595241,0.965663065902104,0.2869307375,0.6832550415153691
0.041,1.757975,1.0,2735.5865485103177,0.36972033047353914,1.314711018376272,0.9662559415232138,0.28688795,0.6841740271446741
0.0415,1.75694375,1.0,2735.1475639469227,0.37325569699598216,1.3142492784920532,0.9668292453410299,0.2868446375,0.6851000987475255
0.042,1.7559,1.0,2734.559371819194,0.37677122938827073,1.3137832487331047,0.9673838225840463,0.28680079999999997,0.6860333954543959
0.0425,1.75484375,1.0,2733.8348013113987,0.38026704963427277,1.313312813016652,0.967920472392464,0.2867564375,0.6869741109680881
0.043000000000000003,1.753775,1.0,2732.9811018958053,0.38374326521859575,1.3128379059823652,0.9684399527808686,0.28671155,0.6879223360349773
0.043500000000000004,1.75269375,1.0,2732.0055280650286,0.3871999836258473,1.3123584622699143,0.9689429815269518,0.28666613750000003,0.6888781602307863
0.044,1.7516,1.0,2730.9153376776685,0.390637312340635,1.3118744165189697,0.9694302387050328,0.2866202,0.6898416719418118
0.0445,1.75049375,1.0,2729.717790399919,0.3940553588475665,1.3113857033692011,0.9699023690358063,0.2865737375,0.6908129583458797
0.045,1.7493750000000001,1.0,2728.420146240769,0.3974542306312493,1.3108922574602793,0.9703599840673329,0.28652675,0.6917921053930212
0.0455,1.74824375,1.0,2727.029664182713,0.40083403517629107,1.310394013431874,0.9708036642009223,0.2864792375,0.6927791977858855
0.046,1.7471,1.0,2725.553600906979,0.4041948799672993,1.3098909059236554,0.9712339605743417,0.2864312,0.6937743189598728
0.0465,1.7459437500000001,1.0,2723.9992096133087,0.4075368724888817,1.3093828695752938,0.9716513968136701,0.28638263750000004,0.6947775510629999
0.047,1.744775,1.0,2722.3737389343514,0.4108601202256457,1.3088698390264595,0.9720564706641344,0.28633355,0.695788974935488
0.0475,1.74359375,1.0,2720.6743910740893,0.41416469915941506,1.3083518403323762,0.9724496579817745,0.28628393750000003,0.6968084903177194
0.048,1.7424,1.0,2718.917576279134,0.4174507533418358,1.3078287246742868,0.9728314079330124,0.2862338,0.6978363401320221
0.0485,1.74119375,1.0,2717.108883187383,0.42071839010751455,1.3073004416498861,0.9732021502907984,0.2861831375,0.6988725719444673
0.049,1.739975,1.0,2715.2513745250903,0.423967708385895,1.3067669638243562,0.9735622949516675,0.28613195,0.6999171872002109
0.0495,1.73874375,1.0,2713.3481103060144,0.4271988071064208,1.3062282637628786,0.9739122325328089,0.2860802375,0.7009701864565461
0.05,1.7375,1.0,2711.4021475657573,0.4304117851985354,1.3056843140306353,0.9742523354502703,0.286028,0.7020315693737881
0.0505,1.73624375,1.0,2709.4165401128507,0.4336067415916826,1.3051350871928082,0.9745829589274936,0.2859752375,0.7031013347061139
0.051000000000000004,1.734975,1.0,2707.3943382965713,0.43678377521530604,1.3045805558145793,0.974904441939266,0.28592195,0.7041794802923531
0.051500000000000004,1.73369375,1.0,2705.338588791274,0.4399429849988492,1.3040206924611306,0.9752171080957595,0.2858681375,0.7052660030467304
0.052000000000000005,1.7324,1.0,2703.2523343977095,0.4430844698717558,1.303455469697644,0.9755212664709529,0.2858138,0.7063608989495609
0.0525,1.73109375,1.0,2701.138613860867,0.44620832876346944,1.302884860089301,0.9758172123793926,0.28575893750000003,0.707464163037897
0.053,1.729775,1.0,2699.0004617042405,0.4493146606034338,1.3023088362012838,0.9761052281049333,0.28570355000000003,0.7085757893961269
0.0535,1.72844375,1.0,2696.840908081409,0.4524035643210924,1.3017273705987744,0.9763855835848129,0.2856476375,0.7096957711465237
0.054,1.7271,1.0,2694.6629786437747,0.455475138845889,1.3011404358469547,0.9766585370521608,0.2855912,0.7108241004397517
0.0545,1.7257437500000001,1.0,2692.469694425158,0.45852948310726716,1.3005480045110063,0.9769243356397926,0.2855342375,0.7119607684453194
0.055,1.724375,1.0,2690.2640717429485,0.46156669603467043,1.2999500491561113,0.9771832159479316,0.28547675,0.7131057653419847
0.0555,1.72299375,1.0,2688.0491221163325,0.46458687655754255,1.299346542347452,0.9774354045782949,0.2854187375,0.7142590803081159
0.056,1.7216,1.0,2685.820710401751,0.4675900922240231,1.2987375220921553,0.9776811195521434,0.2853602,0.7154205768311193
0.0565,1.72019375,1.0,2683.5867921730833,0.4705764720299937,1.2981229156249905,0.9779205691038466,0.28530113749999997,0.7165903290154809
0.057,1.718775,1.0,2681.3500748038073,0.4735461148194902,1.2975026981906006,0.9781539528564707,0.28524155,0.7177683181419401
0.0575,1.71734375,1.0,2679.111406425914,0.476499110381633,1.2968768620504196,0.9783814624397233,0.2851814375,0.7189544922802811
0.058,1.7159,1.0,2676.8716337679725,0.4794355485055425,1.2962453994658814,0.978603281734588,0.2851208,0.7201487987732793
0.0585,1.71444375,1.0,2674.6316021511284,0.48235551898033896,1.2956083026984198,0.9788195872463287,0.2850596375,0.7213511842339269
0.059000000000000004,1.7129750000000001,1.0,2672.392155486262,0.48525911159514284,1.2949655640094686,0.9790305484566778,0.28499795,0.7225615945426533
0.059500000000000004,1.71149375,1.0,2670.1541362732546,0.48814641613907445,1.2943171756604617,0.9792363281565266,0.2849357375,0.7237799748445439
0.06,1.71,1.0,2667.9183856006775,0.4910175224012542,1.2936631299128327,0.9794370827603373,0.284873,0.7250062695465521
0.0605,1.7084937500000001,1.0,2665.685743147452,0.49387252017080235,1.293003419028016,0.9796329626034183,0.2848097375,0.7262404223147095
0.061,1.7069750000000001,1.0,2663.4570471855172,0.4967114992368394,1.292338035267445,0.9798241122231178,0.28474595,0.7274823760713334
0.0615,1.7054437500000001,1.0,2661.2331345838893,0.4995345493884856,1.2916669708925534,0.9800106706249232,0.2846816375,0.7287320729922271
0.062,1.7039,1.0,2659.014840814369,0.5023417604148613,1.2909902181647757,0.9801927715343856,0.2846168,0.7299894545038784
0.0625,1.70234375,1.0,2656.802999957808,0.505133222105087,1.2903077693455451,0.9803705436357227,0.2845514375,0.7312544612806562
0.063,1.7007750000000001,1.0,2654.5984447125015,0.5079090242482831,1.2896196166962959,0.9805441107979005,0.28448555,0.7325270332419982
0.0635,1.69919375,1.0,2652.402006403723,0.5106692566335697,1.2889257524784616,0.98071359228894,0.28441913750000003,0.7338071095496006
0.064,1.6976,1.0,2650.2145149939693,0.5134140090500674,1.2882261689534762,0.9808791029791408,0.2843522,0.735094628604599
0.0645,1.69599375,1.0,2648.03661267493,0.516143350403986,1.2875208601031332,0.9810407521213876,0.2842847375,0.7363895248901611
0.065,1.694375,1.0,2645.8684943534113,0.5188573714466296,1.2868098240291044,0.9811986467767005,0.28421675,0.7376917246186039
0.0655,1.69274375,1.0,2643.710484235649,0.5215561869269255,1.2860930576361567,0.9813528917602482,0.2841482375,0.739001155524218
0.066,1.6911,1.0,2641.562754141727,0.5242398778042191,1.2853705592324378,0.9815035858420558,0.2840792,0.7403177421025693
0.0665,1.6894437500000001,1.0,2639.425475643659,0.5269085250378553,1.284642327126095,0.9816508242896712,0.2840096375,0.7416414081895445
0.067,1.687775,1.0,2637.298820068389,0.5295622095871794,1.2839083596252758,0.9817946990155875,0.28393955,0.7429720769607304
0.0675,1.68609375,1.0,2635.1829585015,0.5322010124115363,1.2831686550381278,0.981935298717449,0.2838689375,0.7443096709307965
0.068,1.6844000000000001,1.0,2633.0780617904024,0.5348250144702711,1.2824232116727983,0.9820727090114381,0.2837978,0.7456541119528756
0.0685,1.68269375,1.0,2630.9843005478815,0.5374342967227291,1.281672027837435,0.9822070125592222,0.2837261375,0.7470053212179442
0.069,1.680975,1.0,2628.9018451556703,0.5400289401282553,1.2809151018401852,0.9823382891888132,0.28365395,0.748363219254204
0.0695,1.67924375,1.0,2626.8308657679286,0.542609025646195,1.2801524319891966,0.982466616009669,0.28358123749999997,0.7497277259264623
0.07,1.6775,1.0,2624.7715323151388,0.545174634235893,1.2793840165926165,0.982592067522352,0.283508,0.7510987604355122
0.07050000000000001,1.67574375,1.0,2622.7240145077126,0.5477258468566946,1.2786098539585926,0.9827147157230323,0.2834342375,0.7524762413175118
0.07100000000000001,1.673975,1.0,2620.6884818395583,0.5502627444679448,1.2778299423952724,0.9828346302031146,0.28335995,0.7538600864433662
0.07150000000000001,1.67219375,1.0,2618.665103592429,0.5527854080289889,1.277044280210803,0.9829518782442456,0.2832851375,0.755250213018106
0.07200000000000001,1.6704,1.0,2616.6540488395235,0.5552939184991719,1.2762528657133325,0.9830665249089447,0.2832098,0.7566465375802662
0.0725,1.66859375,1.0,2614.655486449439,0.5577883568378388,1.2754556972110078,0.9831786331270876,0.2831339375,0.7580489760012679
0.073,1.6667750000000001,1.0,2612.6695850904853,0.560268804004335,1.274652773011977,0.9832882637784589,0.28305755,0.7594574434847942
0.0735,1.66494375,1.0,2610.696513234503,0.5627353409580054,1.273844091424387,0.9833954757715749,0.2829806375,0.7608718545661736
0.074,1.6631,1.0,2608.735414358905,0.5651880480373229,1.2730296602846194,0.9835003265053913,0.2829032,0.7622921065206165
0.0745,1.6612487898257378,1.0,2607.0201323143215,0.5676269993012898,1.2722095805672542,0.9836028752927527,0.282825449172681,0.763717934462371
0.075,1.6593975146038398,1.0,2605.872701777366,0.5700522702269043,1.2713841938602626,0.9837031902248111,0.28274769561336127,0.7651486585548961
