Time [s],Phi [rad],STIM [ ],Fsee [N],Gamma [ ],Lcerel [ ],q [ ],Lmtc [m],fisomrel [ ]
0.0,1.8,1.0,17.968881414539165,1.9679887351958753e-05,1.3793395531630601,0.00500010267172884,0.288653,0.5411399981060264
0.0005,1.79999375,1.0,18.281318534393193,0.005628778807544716,1.3793018796957925,0.012967406413904273,0.2886527375,0.54123113539298
0.001,1.799975,1.0,21.630061334127173,0.011206415117670114,1.3789371093575393,0.03565902623588746,0.28865195,0.5421130967849244
0.0015,1.79994375,1.0,31.09613368147692,0.01675276529896326,1.378043912635001,0.07067075186890237,0.2886506375,0.5442691330345016
0.002,1.7999,1.0,53.639631839925,0.022268004840994587,1.3763644189825326,0.11479960523326464,0.2886488,0.548309388150321
0.0025,1.79984375,1.0,97.21475246732787,0.027752308249296254,1.3739305513102373,0.16466363248467786,0.28864643749999996,0.5541324706531313
0.003,1.7997750000000001,1.0,161.08280263983224,0.0332058490529948,1.3712096794217177,0.21737200573863444,0.28864354999999997,0.5605974933151326
0.0035,1.79969375,1.0,237.82412127772395,0.0386287998044692,1.3685803981789033,0.27070395062901853,0.2886401375,0.566800032137376
0.004,1.7996,1.0,321.61653655164974,0.04402133209011598,1.3661521261496088,0.3230039778292224,0.2886362,0.5724892235845694
0.0045000000000000005,1.7994937500000001,1.0,409.4228318367663,0.04938361653553882,1.3639191741680652,0.3731182124715625,0.2886317375,0.5776876105638822
0.005,1.799375,1.0,499.5717139554219,0.05471582279664885,1.3618549806681794,0.42032577531081994,0.28862675,0.5824648372628556
0.0055,1.79924375,1.0,590.9500520135289,0.06001811960681166,1.3599357163703065,0.46424620686286766,0.2886212375,0.5868822706664358
0.006,1.7991000000000001,1.0,682.6779407736412,0.06529067472084177,1.3581435095890437,0.5047465983915482,0.2886152,0.5909860540154418
0.006500000000000001,1.79894375,1.0,774.0422563297972,0.07053365496778434,1.356464505410708,0.5418616667381272,0.2886086375,0.5948120420353932
0.007,1.798775,1.0,864.4475648480206,0.07574722624829497,1.3548877822789411,0.5757322597151212,0.28860155,0.598388590526578
0.0075,1.79859375,1.0,953.4035781661166,0.0809315535061412,1.353404312749966,0.6065603625124287,0.2885939375,0.6017391317912125
0.008,1.7984,1.0,1040.5168478300973,0.0860868007921382,1.3520063144120347,0.6345778846091994,0.2885858,0.6048837838458412
0.0085,1.79819375,1.0,1125.4753670386513,0.09121313122120665,1.3506869604369383,0.6600260139783025,0.2885771375,0.6078401013376955
0.009000000000000001,1.797975,1.0,1208.0354421239592,0.09631070696117831,1.3494401869141233,0.6831421431125148,0.28856795,0.6106235834484139
0.0095,1.79774375,1.0,1288.0226757129533,0.10137968937451053,1.3482603973802376,0.7041519986425504,0.2885582375,0.6132483916344356
0.01,1.7975,1.0,1365.305463402626,0.106420238817032,1.3471426063285241,0.7232655786700383,0.288548,0.6157270754829061
0.0105,1.79724375,1.0,1439.7925570582336,0.11143251456133271,1.3460822811046218,0.7406752478031832,0.2885372375,0.618070965259635
0.011,1.796975,1.0,1511.446618683822,0.11641667570378826,1.3450750340195754,0.7565552545793696,0.28852595000000003,0.6202908829604238
0.0115,1.79669375,1.0,1580.2404532388878,0.12137287963058115,1.3441170561814328,0.7710625066540672,0.2885141375,0.622396210602757
0.012,1.7964,1.0,1646.1743032980282,0.12630128294812393,1.3432047920934818,0.78433747035322,0.28850180000000003,0.6243956335588966
0.0125,1.79609375,1.0,1709.2825746568196,0.13120204192272572,1.3423347873612324,0.7965054263961903,0.2884889375,0.6262974915890939
0.013000000000000001,1.7957750000000001,1.0,1769.596799610522,0.13607531147814658,1.3415040539738203,0.8076780342588866,0.28847555,0.6281089959166009
0.0135,1.79544375,1.0,1827.1754582527233,0.14092124594121502,1.3407096626427155,0.8179545522843202,0.2884616375,0.6298371357840784
0.014,1.7951000000000001,1.0,1882.0770968261397,0.14573999846382546,1.3399490012504527,0.8274232759162006,0.2884472,0.6314881267500629
0.0145,1.79474375,1.0,1934.3695939669365,0.15053172139248144,1.339219624782028,0.8361627090049799,0.2884322375,0.6330677492434315
0.015,1.794375,1.0,1984.1384589591041,0.15529656708220735,1.3385191328018207,0.8442426478905317,0.28841675,0.6345816222165284
0.0155,1.79399375,1.0,2031.4493611614441,0.16003468552311614,1.3378455412416288,0.8517253188773192,0.2884007375,0.6360344077268842
0.016,1.7936,1.0,2076.3829545806616,0.16474622661864619,1.3371968783158343,0.8586661379701398,0.2883842,0.6374306927744147
0.0165,1.7931937500000001,1.0,2119.0157630723916,0.16943133882918382,1.33657136677289,0.8651145717914539,0.2883671375,0.6387746016219029
0.017,1.792775,1.0,2159.4624104888517,0.1740901728832524,1.3359669699677725,0.8711147105778446,0.28834955,0.6400707751615875
0.0175,1.7923437500000001,1.0,2197.791544003255,0.1787228748650989,1.3353822437499197,0.8767061409175604,0.2883314375,0.64132254648364
0.018000000000000002,1.7919,1.0,2234.076081935915,0.1833295904522153,1.3348157957409672,0.8819243229469325,0.2883128,0.6425331088084916
0.0185,1.79144375,1.0,2268.3974215104954,0.1879104653220936,1.3342662335625501,0.8868010583223597,0.2882936375,0.6437056285073555
0.019,1.790975,1.0,2300.843027171356,0.1924656449255143,1.3337321816135046,0.8913649179931274,0.28827395,0.6448432109550088
0.0195,1.79049375,1.0,2331.4940096807118,0.19699527327877955,1.3332123960452729,0.8956416396832192,0.2882537375,0.6459486579138018
0.02,1.79,1.0,2360.4410062863303,0.20149949565902928,1.3327055993874342,0.8996544112381669,0.288233,0.6470248218630363
0.0205,1.78949375,1.0,2387.7466183603965,0.2059784530077705,1.332210841386262,0.9034242350791114,0.2882117375,0.6480738420453824
0.021,1.788975,1.0,2413.477846598405,0.21043228626651023,1.33172717178803,0.9069700983862232,0.28818995000000003,0.649097842785443
0.021500000000000002,1.78844375,1.0,2437.705728456595,0.21486113637675544,1.3312536403390116,0.9103091940960872,0.2881676375,0.6500989341905381
0.022,1.7879,1.0,2460.501776403024,0.2192651437359311,1.330789327604892,0.9134571212139307,0.2881448,0.6510791477764777
0.0225,1.78734375,1.0,2481.93212638948,0.22364444758334318,1.3303333970071567,0.916428065018349,0.28812143749999997,0.6520403278753578
0.023,1.786775,1.0,2502.0776061357533,0.22799918936335264,1.3298848998412045,0.9192349097045429,0.28809755,0.652984543548337
0.0235,1.78619375,1.0,2520.989207532353,0.2323295049613576,1.3294431961406714,0.921889449541268,0.28807313749999996,0.6539132031779946
0.024,1.7856,1.0,2538.7200048752834,0.23663553026275605,1.3290076459391937,0.9244024452736761,0.2880482,0.654827706994739
0.0245,1.78499375,1.0,2555.3249829142464,0.24091740115294613,1.3285776092704076,0.926783728919694,0.2880227375,0.6557294473410185
0.025,1.784375,1.0,2570.860873981335,0.24517525351732586,1.3281524461679493,0.9290422966715937,0.28799675,0.6566198089094106
0.025500000000000002,1.78374375,1.0,2585.380396131816,0.24940922199870583,1.327731569042168,0.9311863995727877,0.2879702375,0.6575000594807354
0.026000000000000002,1.7831000000000001,1.0,2598.9365535087827,0.2536194414358835,1.327314400589371,0.9332236095845956,0.2879432,0.6583714386697094
0.0265,1.78244375,1.0,2611.5884459511994,0.2578060474307469,1.3269003185143045,0.9351608761647353,0.2879156375,0.6592352734542293
0.027,1.781775,1.0,2623.3744030002435,0.26196917047065654,1.3264889040525616,0.9370046214760674,0.28788755,0.6600924602377463
0.0275,1.7810937500000001,1.0,2634.333635941685,0.26610894104297267,1.326079738439736,0.9387607601638822,0.2878589375,0.6609438908771471
0.028,1.7804,1.0,2644.5061625691965,0.2702254896350555,1.3256724029114206,0.9404347461732446,0.2878298,0.6617904527484098
0.0285,1.77969375,1.0,2653.932735834978,0.27431894673426543,1.3252664787032087,0.942031614680886,0.2878001375,0.6626330288010686
0.029,1.778975,1.0,2662.654776389186,0.27838944282796274,1.3248615470506935,0.9435560197045515,0.28776995,0.663472497601499
0.029500000000000002,1.7782437500000001,1.0,2670.70998968092,0.28243710517712706,1.324457228880266,0.9450122721416305,0.2877392375,0.664309651235136
0.03,1.7775,1.0,2678.1377776280688,0.2864620660170826,1.3240531343263984,0.9464043658647735,0.287708,0.6651453001697616
0.0305,1.77674375,1.0,2684.968041392948,0.2904644513147675,1.323648964951929,0.9477360145025748,0.2876762375,0.6659800621350289
0.031,1.775975,1.0,2691.230060732827,0.2944443862121433,1.32324443148418,0.9490106664563671,0.28764395,0.666814532890527
0.0315,1.7751937500000001,1.0,2696.9534550153608,0.29840199585117133,1.322839244650473,0.950231526323881,0.2876111375,0.667649305208903
0.032,1.7744,1.0,2702.168150275191,0.302337405373813,1.3224331151781308,0.9514015751502682,0.2875778,0.668484968866474
0.0325,1.77359375,1.0,2706.9043481267972,0.3062507399220296,1.3220257537944744,0.9525235887621513,0.2875439375,0.6693221106285094
0.033,1.772775,1.0,2711.1818359718905,0.3101421174019212,1.3216169684539913,0.9536001637023791,0.28750955,0.6701611148037766
0.0335,1.7719437500000002,1.0,2715.0309636220977,0.31401166574783024,1.3212064725667463,0.9546337142466862,0.2874746375,0.6710025573380998
0.034,1.7711000000000001,1.0,2718.489000212903,0.3178595177770648,1.320793918318931,0.9556264891978691,0.2874392,0.6718471363826117
0.0345,1.7702437500000001,1.0,2721.5727900172224,0.32168579157980065,1.3203791455372436,0.9565806071551257,0.2874032375,0.6726951629618168
0.035,1.7693750000000001,1.0,2724.2992977853005,0.32549060524621376,1.3199619940483822,0.9574980498553863,0.28736675,0.6735469463156347
0.035500000000000004,1.76849375,1.0,2726.6855968604264,0.3292740768664798,1.3195423036790455,0.958380672599317,0.2873297375,0.6744027938759206
0.036000000000000004,1.7676,1.0,2728.748857863106,0.33303632453077475,1.3191199142559311,0.9592302137685351,0.2872922,0.6752630112413494
0.0365,1.76669375,1.0,2730.5063379442204,0.33677746632927436,1.3186946656057381,0.9600483035226329,0.2872541375,0.6761279021506594
0.037,1.765775,1.0,2731.9753706069077,0.3404976203521546,1.318266397555164,0.9608364717551126,0.28721555,0.6769977684542674
0.0375,1.76484375,1.0,2733.1733560976263,0.34419690468959113,1.3178349499309074,0.96159615537894,0.2871764375,0.6778729100842398
0.038,1.7639,1.0,2734.117752365151,0.3478754374317599,1.3174001625596667,0.9623287050050051,0.28713679999999997,0.6787536250226311
0.0385,1.76294375,1.0,2734.8260665897374,0.3515333366688368,1.31696187526814,0.9630353910701835,0.28709663750000003,0.679640209268189
0.039,1.761975,1.0,2735.3147809374595,0.35517071835879777,1.3165199375653631,0.96371740994577,0.28705595,0.680532937256437
0.0395,1.7609937500000001,1.0,2735.5958805060836,0.3587876926748428,1.3160742400980596,0.9643758912628143,0.2870147375,0.6814319985536804
0.04,1.76,1.0,2735.686772671795,0.3623843860557789,1.3156246245279133,0.9650118985220917,0.286973,0.682337679820197
0.0405,1.7589937500000001,1.0,2735.5969221734053,0.36596090909620915,1.3151710048338017,0.9656264383416948,0.2869307375,0.6832501202552671
0.041,1.757975,1.0,2735.3358116819268,0.3695173723907364,1.3147132949946025,0.9662204608900845,0.28688795,0.6841694577603326
0.0415,1.75694375,1.0,2734.9129387529874,0.3730538865339637,1.3142514089891935,0.9667948636359835,0.2868446375,0.6850958289167942
0.042,1.7559,1.0,2734.3378129432654,0.3765705621204939,1.3137852607964517,0.9673504948117686,0.28680079999999997,0.6860293689633379
0.0425,1.75484375,1.0,2733.6199530905687,0.38006750974493003,1.3133147643952556,0.967888156614979,0.2867564375,0.6869702117727853
0.043000000000000003,1.753775,1.0,2732.768884758196,0.38354484000187494,1.3128398337644822,0.968408608170204,0.28671155,0.6879184898284794
0.043500000000000004,1.75269375,1.0,2731.7941378438213,0.3870026634859317,1.3123603828830093,0.9689125682715376,0.28666613750000003,0.6888743342001908
0.044,1.7516,1.0,2730.7052443513953,0.3904410907917032,1.3118763257297144,0.9694007179238899,0.2866202,0.6898378745195571
0.0445,1.75049375,1.0,2729.511736328279,0.3938602325137924,1.3113875762834752,0.9698737026997697,0.2865737375,0.6908092389550475
0.045,1.7493750000000001,1.0,2728.2113669180167,0.3972601966524583,1.3108941555972449,0.9703321427586217,0.28652675,0.6917883418860845
0.0455,1.74824375,1.0,2726.836387298113,0.40064109080746446,1.3103957710724055,0.9707766028602397,0.2864792375,0.6927757184322922
0.046,1.7471,1.0,2725.3821683320416,0.4040030209523585,1.3098924653332145,0.9712076441182915,0.2864312,0.693771237020735
0.0465,1.7459437500000001,1.0,2723.8414491528756,0.40734609288190826,1.3093843050261968,0.9716258013247824,0.28638263750000004,0.6947747187610243
0.047,1.7447790555967406,1.0,2722.408215560039,0.4106704123908816,1.3088713567978787,0.9720315827853576,0.2863337203350631,0.6957859851716758
0.0475,1.7436141248528458,1.0,2721.4825306852363,0.4139760848582427,1.3083536848367219,0.9724254716518608,0.2862847932438195,0.6968048630344885
0.048,1.7424491941089508,1.0,2721.03413280457,0.41726321547423345,1.3078316690160292,0.9728079498751347,0.2862358661525759,0.6978305597921105
0.0485,1.741284263365056,1.0,2721.0170661670572,0.42053190864825285,1.3073057266313886,0.9731794786669841,0.28618693906133236,0.6988622142205175
0.049,1.7401193326211613,1.0,2721.400120300572,0.42378226688447795,1.306776141758314,0.973540487819782,0.28613801197008876,0.6998992310200347
0.0495,1.7389544018772665,1.0,2722.152168964938,0.42701439268708563,1.306243198472319,0.9738913868426938,0.2860890848788452,0.7009410184612366
0.05,1.7377894711333717,1.0,2723.242148103967,0.43022838856025286,1.3057071808489178,0.9742325661105462,0.2860401577876016,0.7019869884483645
0.0505,1.736624540389477,1.0,2724.641799196549,0.4334243561451163,1.3051683478210776,0.974564396173886,0.285991230696358,0.7030366055106945
0.051000000000000004,1.735459609645582,1.0,2726.322561179093,0.43660239776511134,1.304626961317645,0.9748872308874713,0.2859423036051144,0.7040893317550319
0.051500000000000004,1.7342946789016873,1.0,2728.2627205792537,0.43976261341729955,1.3040832211110536,0.9752014037823239,0.28589337651387087,0.7051447533122643
0.052000000000000005,1.7331297481577925,1.0,2730.4424852405436,0.4429051024176159,1.303537309583279,0.9755072322388869,0.28584444942262727,0.706202492636941
0.0525,1.7319648174138977,1.0,2732.8420641473726,0.4460299640819954,1.3029894091162963,0.9758050195357986,0.2857955223313837,0.7072621746280536
0.053,1.730799886670003,1.0,2735.4423284397394,0.449137297304934,1.3024396960138607,0.9760950551799968,0.2857465952401401,0.7083234383770523
0.0535,1.7296349559261082,1.0,2738.23300664686,0.45222719570079994,1.3018882660745539,0.9763776105478924,0.2856976681488965,0.7093860803778679
0.054,1.7284700251822134,1.0,2741.1820040083144,0.45529976765604735,1.3013354130282988,0.9766529588803418,0.285648741057653,0.7104495180327315
0.0545,1.7273050944383186,1.0,2744.2792995325203,0.4583551078746782,1.3007812300122437,0.9769213482308655,0.2855998139664094,0.7115135576285772
0.055,1.7261401636944238,1.0,2747.514861363493,0.46139331106069453,1.3002258101635367,0.9771830161509987,0.2855508868751658,0.7125780067335716
0.0555,1.724975232950529,1.0,2750.878644130439,0.4644144719180983,1.299669246619326,0.9774381902247828,0.28550195978392223,0.713642674204737
0.056,1.7238103022066342,1.0,2754.3605864897086,0.46741868515089147,1.29911163251676,0.9776870885718216,0.28545303269267863,0.7147073701950215
0.0565,1.7226453714627394,1.0,2757.950608859528,0.470406045463076,1.2985530609929867,0.9779299203209935,0.28540410560143503,0.7157719061598149
0.057,1.7214804407188447,1.0,2761.6386113467124,0.473376647558654,1.2979936251851543,0.9781668860567547,0.2853551785101915,0.716836094862914
0.0575,1.7203155099749499,1.0,2765.414471865425,0.4763305861416274,1.297433418230411,0.9783981782398298,0.2853062514189479,0.7178997503819304
0.058,1.719150579231055,1.0,2769.268044449171,0.4792679559159981,1.2968725332659052,0.9786239816039513,0.28525732432770434,0.7189626881131506
0.0585,1.7179856484871603,1.0,2773.194930578274,0.48218884416797103,1.2963110113709937,0.978844469997949,0.28520839723646074,0.7200248231514632
0.059000000000000004,1.7168207177432655,1.0,2777.1832723277744,0.4850933518368876,1.295748960752664,0.9790598152729723,0.28515947014521714,0.7210859445590536
0.059500000000000004,1.7156557869993707,1.0,2781.2259340752266,0.48798157248451135,1.295186446803552,0.979270179595374,0.28511054305397354,0.722145923544304
0.06,1.714490856255476,1.0,2785.3189161358728,0.49085359508604626,1.2946235065229712,0.9794757169308019,0.28506161596273,0.7232046855998366
0.0605,1.713325925511581,1.0,2789.458208017775,0.49370950861669655,1.2940601769102342,0.9796765753285138,0.2850126888714864,0.724262156745924
0.061,1.7121609947676864,1.0,2793.63978808729,0.49654940205166626,1.2934964949646537,0.9798728971952895,0.28496376178024285,0.725318263531451
0.0615,1.7109960640237913,1.0,2797.8596232645004,0.49937336436615953,1.292932497685543,0.9800648195546499,0.28491483468899925,0.7263729330347874
0.062,1.7098311332798966,1.0,2802.113668749724,0.5021814845353806,1.2923682220722148,0.9802524742922768,0.28486590759775565,0.7274260928645795
0.0625,1.7086662025360018,1.0,2806.3978677799837,0.5049738515345333,1.291803705123982,0.9804359883884679,0.28481698050651205,0.7284776711604471
0.063,1.707501271792107,1.0,2810.708151415618,0.5077505543388221,1.2912389838401575,0.9806154841384016,0.2847680534152685,0.7295275965935986
0.0635,1.7063363410482122,1.0,2815.0404383574873,0.5105116819234509,1.2906740952200544,0.9807910793609385,0.2847191263240249,0.7305757983673558
0.064,1.7051714103043174,1.0,2819.3912923554303,0.5132573206660087,1.290109070382064,0.9809628871119717,0.28467019923278136,0.7316222170983887
0.0645,1.7040064795604226,1.0,2823.7617367441935,0.5159875424988777,1.2895439004962213,0.9811310133481695,0.28462127214153776,0.7326668676193697
0.065,1.7028415488165278,1.0,2828.142636433837,0.5187024622202376,1.2889786674726593,0.9812955677750516,0.28457234505029416,0.7337095974034636
0.0655,1.701676618072633,1.0,2832.532771869911,0.521402162103151,1.2884133823398336,0.981456650431982,0.28452341795905056,0.7347503854824521
0.066,1.7005116873287383,1.0,2836.9309196861086,0.5240867244206805,1.2878480561261987,0.9816143578427324,0.284474490867807,0.7357892110470943
0.0665,1.6993467565848435,1.0,2841.33585269261,0.5267562314458885,1.28728269986021,0.981768783164566,0.2844255637765634,0.7368260534471571
0.067,1.6981818258409487,1.0,2845.746339867819,0.5294107654518375,1.2867173245703225,0.9819200163299796,0.2843766366853199,0.7378608921914425
0.0675,1.697016895097054,1.0,2850.161146351895,0.53205040871159,1.2861519412849913,0.9820681441815198,0.28432770959407627,0.7388937069478025
0.068,1.695851964353159,1.0,2854.5790334439175,0.5346752434982087,1.2855865610326715,0.9822132506000553,0.28427878250283267,0.739924477543151
0.0685,1.6946870336092643,1.0,2858.9987586009115,0.537285352084756,1.2850211948418182,0.9823554166268647,0.28422985541158907,0.740953183963464
0.069,1.6935221028653695,1.0,2863.4190754401384,0.5398808167442944,1.2844558537408863,0.9824947205798826,0.2841809283203455,0.7419798063537739
0.0695,1.6923571721214747,1.0,2867.8387337436825,0.5424617197498864,1.2838905487583312,0.9826312381644189,0.2841320012291019,0.7430043250181555
0.07,1.69119224137758,1.0,2872.256479466302,0.5450281433745947,1.2833252909226076,0.9827650425786509,0.2840830741378584,0.744026720419706
0.07050000000000001,1.6900273106336852,1.0,2876.6710547450366,0.5475801698914817,1.282760091262171,0.9828962046141685,0.2840341470466148,0.7450469731805125
0.07100000000000001,1.6888623798897904,1.0,2881.0811979127607,0.55011788157361,1.2821949608054761,0.983024792751837,0.2839852199553712,0.7460650640816193
0.07150000000000001,1.6876974491458956,1.0,2885.4856435132137,0.5526413606940419,1.2816299105809783,0.9831508732532238,0.2839362928641276,0.7470809740629789
0.07200000000000001,1.6865325184020008,1.0,2889.8848852327587,0.5551506649032706,1.2810649360439248,0.9832745080995855,0.28388736577288404,0.7480947121384709
0.0725,1.685367587658106,1.0,2894.277495543256,0.5576458924973547,1.2805000496224623,0.9833957604327642,0.28383843868164044,0.7491062568934828
