Time [s],Phi [rad],STIM [ ],Fsee [N],Gamma [ ],Lcerel [ ],q [ ],Lmtc [m],fisomrel [ ]
0.0,1.8,1.0,18.709119671803638,0.0008782577445357876,1.3792574626087226,0.005198360453904198,0.288653,0.5413385747946218
0.0005,1.79999375,1.0,19.27838285825593,0.006482540721960741,1.379192609240344,0.015525612616575587,0.2886527375,0.541495424418048
0.001,1.799975,1.0,23.26560925133161,0.012055388103024487,1.3787731502676153,0.040275400122703565,0.28865195,0.5425092494781458
0.0015,1.79994375,1.0,34.17410887849611,0.017596976216845143,1.3777879770326322,0.07689599396922576,0.2886506375,0.5448859834489521
0.002,1.7999,1.0,59.548100033356526,0.02310748040275764,1.3759913186149733,0.12211193109564357,0.2886488,0.549204490836013
0.0025,1.79984375,1.0,106.54146499603081,0.02858707501792258,1.3734916272723905,0.17258047847993477,0.28864643749999996,0.5551785853234112
0.003,1.7997750000000001,1.0,172.84054572077812,0.03403593343958077,1.3707774938289001,0.22551431490289975,0.28864354999999997,0.5616200576210457
0.0035,1.79969375,1.0,250.906564351222,0.03945422807270669,1.36818293643414,0.27878463852979435,0.2886401375,0.567733817980657
0.004,1.7996,1.0,335.4138115583895,0.04484213035440815,1.3657906106476396,0.33081572677701016,0.2886362,0.5733330011544227
0.0045000000000000005,1.7994937500000001,1.0,423.6312956792179,0.05019981077495542,1.363588554499663,0.38052485801517033,0.2886317375,0.5784546015205534
0.005,1.799375,1.0,514.0068193646343,0.0555274388219333,1.3615504685045083,0.4272493909318282,0.28862675,0.5831672790949316
0.0055,1.79924375,1.0,605.4779280977974,0.06082518313711379,1.3596536383629623,0.4706524117307448,0.2886212375,0.5875295293759042
0.006,1.7991000000000001,1.0,697.1734905143626,0.0660932112212067,1.357881433805159,0.5106315661346745,0.2886152,0.5915844366631492
0.006500000000000001,1.79894375,1.0,788.4186037846383,0.07133168991390124,1.3562202461946335,0.5472410971410344,0.2886086375,0.5953671434981973
0.007,1.798775,1.0,878.6203927528117,0.07654078477739769,1.354659797780303,0.5806338818565238,0.28860155,0.5989044255052124
0.0075,1.79859375,1.0,967.3227556602028,0.08172066086870311,1.3531910151079334,0.6110180177911854,0.2885939375,0.6022197284662869
0.008,1.7984,1.0,1054.1307392263675,0.08687148189456315,1.3518065438608164,0.6386281136167342,0.2885858,0.605332129134909
0.0085,1.79819375,1.0,1138.7348370130587,0.09199341071784975,1.3504998181078542,0.6637055468349806,0.2885771375,0.6082585379667127
0.009000000000000001,1.797975,1.0,1220.9260611418872,0.09708660989602216,1.349264529145321,0.6864861438629473,0.28856795,0.6110149511508205
0.0095,1.79774375,1.0,1300.5184119107291,0.10215124014743601,1.3480954528351092,0.7071935930563713,0.2885582375,0.6136146547051029
0.01,1.7975,1.0,1377.3839367660769,0.10718746161557015,1.3469877149800922,0.7260352957040946,0.288548,0.6160699159849947
0.0105,1.79724375,1.0,1451.4572572964696,0.11219543396970415,1.3459365896654858,0.7432007378818996,0.2885372375,0.6183924615134353
0.011,1.796975,1.0,1522.693762841853,0.1171753158453115,1.3449379055755306,0.7588615414305202,0.28852595000000003,0.6205926061771886
0.0115,1.79669375,1.0,1591.0627962267872,0.12212726423346876,1.3439879920938353,0.7731720755282611,0.2885141375,0.6226794046404702
0.012,1.7964,1.0,1656.5724155450757,0.12705143565321553,1.3430832799224435,0.7862703849948782,0.28850180000000003,0.6246615530537574
0.0125,1.79609375,1.0,1719.2682219323524,0.13194798690566736,1.3422202561737464,0.7982795280460184,0.2884889375,0.6265475008430338
0.013000000000000001,1.7957750000000001,1.0,1779.1891169837954,0.1368170729342272,1.3413959139622968,0.8093091773401228,0.28847555,0.6283444831946685
0.0135,1.79544375,1.0,1836.371144253893,0.14165884684498636,1.3406076307387174,0.8194569390932029,0.2884616375,0.6300588070234616
0.014,1.7951000000000001,1.0,1890.877270770837,0.14647346174403617,1.3398527839536305,0.8288095189122302,0.2884472,0.631696700379359
0.0145,1.79474375,1.0,1942.7856423879791,0.15126107006759193,1.3391288522892337,0.837443989212858,0.2884322375,0.6332640993143721
0.015,1.794375,1.0,1992.1840564297534,0.15602182446191573,1.3384334447838129,0.8454289122544916,0.28841675,0.6347665926395469
0.0155,1.79399375,1.0,2039.1460579147345,0.16075587538912767,1.33776452390238,0.8528254042869435,0.2884007375,0.6362089489572657
0.016,1.7936,1.0,2083.7405503749487,0.16546337163116018,1.3371202683340826,0.8596879653075721,0.2883842,0.6375954230814929
0.0165,1.7931937500000001,1.0,2126.0503343979476,0.17014446196994576,1.3364988567680678,0.8660651959137747,0.2883671375,0.6389302276587481
0.017,1.792775,1.0,2166.1658672111967,0.17479929467221653,1.3358985194530293,0.8720005109006945,0.28834955,0.6402174254759659
0.0175,1.7923437500000001,1.0,2204.178007269864,0.17942801766205685,1.3353175980872565,0.8775327680270557,0.2883314375,0.641460804888371
0.018000000000000002,1.7919,1.0,2240.1777888411957,0.18403077852463745,1.3347545334112823,0.8826967980883934,0.2883128,0.6426639105886311
0.0185,1.79144375,1.0,2274.232648846846,0.18860772144556562,1.334208089341023,0.8875239284459524,0.2882936375,0.6438295695759654
0.019,1.790975,1.0,2306.4171787248406,0.19315899061044883,1.3336770297923954,0.8920423056318584,0.28827395,0.6449605860616225
0.0195,1.79049375,1.0,2336.812531155293,0.1976847302048944,1.3331601186813156,0.8962772597551045,0.2882537375,0.6460597427303946
0.02,1.79,1.0,2365.4980181481715,0.20218508331596616,1.332656196497647,0.9002516408455754,0.288233,0.647129639450634
0.0205,1.78949375,1.0,2392.5590579107966,0.20666019383838152,1.3321640958782346,0.9039860784087953,0.2882117375,0.6481728743922035
0.021,1.788975,1.0,2418.071407682874,0.21111020397018668,1.3316827895993606,0.9074992580317511,0.28818995000000003,0.64919173177164
0.021500000000000002,1.78844375,1.0,2442.094683099655,0.21553525298741924,1.331211445194086,0.9108081434850305,0.2881676375,0.6501880694274393
0.022,1.7879,1.0,2464.691887671937,0.21993548016611691,1.3307492301954718,0.9139281229367413,0.2881448,0.6511637331795371
0.0225,1.78734375,1.0,2485.9291324087794,0.22431102478231735,1.3302953121365788,0.9168731770843924,0.28812143749999997,0.6521205573360969
0.023,1.786775,1.0,2505.8752542050297,0.22866202608800035,1.3298488596565963,0.9196560275846397,0.28809755,0.6530603628292189
0.0235,1.78619375,1.0,2524.586800367656,0.23298862016156544,1.3294091820365581,0.9222882922540484,0.28807313749999996,0.6539846645089469
0.024,1.7856,1.0,2542.144963191306,0.23729094832029218,1.3289753766897439,0.924780537779762,0.2880482,0.6548954130479628
0.0245,1.78499375,1.0,2558.59557144595,0.2415691446254631,1.3285468942138599,0.9271424807568031,0.2880227375,0.6557938083623304
0.025,1.784375,1.0,2573.986035172736,0.24582334313836063,1.3281231852066118,0.9293830133092613,0.28799675,0.6566810437814654
0.025500000000000002,1.78374375,1.0,2588.3652154277565,0.2500536779202672,1.3277037002657057,0.9315102842931599,0.2879702375,0.6575583062250144
0.026000000000000002,1.7831000000000001,1.0,2601.783300718286,0.25426028303246534,1.3272878899888472,0.9335317715123765,0.2879432,0.6584267763604856
0.0265,1.78244375,1.0,2614.2916901305007,0.25844329253623743,1.3268752049737425,0.9354543460368822,0.2879156375,0.6592876287416258
0.027,1.781775,1.0,2625.9346854110486,0.2626028363468821,1.3264651717875873,0.9372843394882411,0.28788755,0.6601418737554245
0.0275,1.7810937500000001,1.0,2636.7691442397204,0.2667390519291824,1.3260572094737764,0.9390275714636711,0.2878589375,0.6609907402747893
0.028,1.7804,1.0,2646.830263806716,0.2708520680870443,1.3256509456278474,0.9406894366965082,0.2878298,0.6618350178944159
0.0285,1.77969375,1.0,2656.153254335428,0.2749420133212255,1.3252460139739106,0.9422749172575027,0.2878001375,0.6626754795729679
0.029,1.778975,1.0,2664.773940788762,0.2790090161324837,1.3248420482360765,0.9437886187853983,0.28776995,0.6635128944444851
0.029500000000000002,1.7782437500000001,1.0,2672.7287076937423,0.2830532050215767,1.3244386821384553,0.9452348037842973,0.2877392375,0.6643480278452245
0.03,1.7775,1.0,2680.054446941157,0.28707470848926225,1.3240355494051572,0.9466174215780515,0.287708,0.6651816413319449
0.0305,1.77674375,1.0,2686.7866257626915,0.29107365378496936,1.3236323010096998,0.9479401371182373,0.2876762375,0.6660144570891808
0.031,1.775975,1.0,2692.9521967327664,0.2950501627475863,1.3232286695339954,0.9492063619841052,0.28764395,0.6668470254824082
0.0315,1.7751937500000001,1.0,2698.599060818485,0.29900437366014243,1.322824199025612,0.9504192487671617,0.2876111375,0.6676802822814798
0.032,1.7744,1.0,2703.749489324067,0.30293640838858377,1.3224186710057273,0.9515817545992727,0.2875778,0.6685146702388411
0.0325,1.77359375,1.0,2708.4259892783048,0.3068463887988563,1.3220118669955188,0.9526966333631031,0.2875439375,0.6693506298279985
0.033,1.772775,1.0,2712.6512817407975,0.3107344367569059,1.3216035685161645,0.9537664521240441,0.28750955,0.67018859922726
0.0335,1.7719437500000002,1.0,2716.4482811672433,0.3146006741286786,1.3211935570888418,0.9547936060463266,0.2874746375,0.6710290143004367
0.034,1.7711000000000001,1.0,2719.840075832131,0.31844522278012033,1.3207816142347284,0.9557803319492439,0.2874392,0.6718723085744959
0.0345,1.7702437500000001,1.0,2722.849909310757,0.32226820457717703,1.320367521475002,0.9567287206418309,0.2874032375,0.6727189132141715
0.035,1.7693750000000001,1.0,2725.5011630185795,0.32606974138579464,1.3199510603308404,0.9576407281589171,0.28736675,0.6735692569935298
0.035500000000000004,1.76849375,1.0,2727.817339809626,0.3298499550719192,1.319532012323421,0.9585181860078968,0.2873297375,0.6744237662644932
0.036000000000000004,1.7676,1.0,2729.809990476143,0.33360895996773565,1.319110268571665,0.9593628200835407,0.2872922,0.6752826418753823
0.0365,1.76669375,1.0,2731.507112425231,0.33734688286289005,1.31868557145355,0.960176236761684,0.2872541375,0.6761463856738659
0.037,1.765775,1.0,2732.9306277293954,0.3410638447006842,1.3182577193220082,0.9609599480942185,0.28721555,0.6770153829462815
0.0375,1.76484375,1.0,2734.0934365979924,0.34475996016563804,1.3178265930719881,0.9617153811425703,0.2871764375,0.6778898492865206
0.038,1.7639,1.0,2735.008489073537,0.3484353439422715,1.3173920735984381,0.962443877402129,0.28713679999999997,0.678769998778328
0.0385,1.76294375,1.0,2735.688778928285,0.35209011071510454,1.3169540417963068,0.9631466988679781,0.28709663750000003,0.6796560439699777
0.039,1.761975,1.0,2736.1473378740593,0.35572437516865724,1.3165123785605424,0.9638250336071714,0.28705595,0.6805481958480483
0.0395,1.7609937500000001,1.0,2736.3972300877526,0.35933825198744945,1.3160669647860934,0.9644800008825789,0.2870147375,0.6814466638102883
0.04,1.76,1.0,2736.4515470506963,0.36293185585600124,1.3156176813679084,0.9651126558688126,0.286973,0.6823516556375813
0.0405,1.7589937500000001,1.0,2736.323402702785,0.3665053014588325,1.3151644092009354,0.9657239939966907,0.2869307375,0.6832633774650044
0.041,1.757975,1.0,2736.0259289108676,0.37005870348046327,1.3147070291801233,0.966314954959108,0.28688795,0.6841820337519804
0.0415,1.75694375,1.0,2735.5643265663443,0.3735921695299098,1.3142454943344704,0.9668864313352856,0.2868446375,0.6851076826864935
0.042,1.7559,1.0,2734.9551870993673,0.3771058184166601,1.3137796543816451,0.9674392600278587,0.28680079999999997,0.6860405883167582
0.0425,1.75484375,1.0,2734.211792578744,0.38059976392463957,1.3133093891443148,0.9679742342405998,0.2867564375,0.6869809524043887
0.043000000000000003,1.753775,1.0,2733.341224403604,0.3840741138527178,1.3128346347979867,0.9684921082804763,0.28671155,0.6879288624706961
0.043500000000000004,1.75269375,1.0,2732.3505687232364,0.3875289759997642,1.3123553275181679,0.9689935964504622,0.28666613750000003,0.688884404882073
0.044,1.7516,1.0,2731.246914845905,0.3909644581646481,1.3118714034803658,0.969479375566223,0.2866202,0.6898476648315909
0.0445,1.75049375,1.0,2730.0373537390406,0.39438066814623907,1.311382798860088,0.9699500872904117,0.2865737375,0.6908187263203381
0.045,1.7493750000000001,1.0,2728.728976618526,0.39777771374340654,1.3108894498328412,0.9704063402994547,0.28652675,0.6917976721384991
0.0455,1.74824375,1.0,2727.328873629091,0.4011557027550199,1.3103912925741334,0.9708487122963722,0.2864792375,0.6927845838461693
0.046,1.7471,1.0,2725.8441326150573,0.4045147429799485,1.3098882632594715,0.9712777518819569,0.2864312,0.6937795417539174
0.0465,1.7459437500000001,1.0,2724.281837980777,0.4078549422170619,1.309380298064363,0.9716939802955514,0.28638263750000004,0.6947826249030802
0.047,1.744775,1.0,2722.644879762669,0.41117639897082214,1.3088673712966346,0.9720978945717749,0.28633355,0.6957938359321011
0.0475,1.74359375,1.0,2720.942687119067,0.4144792275667956,1.3083493977306602,0.9724899652589882,0.28628393750000003,0.696813293747255
0.048,1.7424,1.0,2719.1824251748512,0.41776353700290725,1.3078263126762624,0.9728706408671829,0.2862338,0.6978410753320663
0.0485,1.74119375,1.0,2717.3676881242313,0.42102942813397737,1.3072980839090147,0.9732403496407468,0.2861831375,0.6988771926844648
0.049,1.739975,1.0,2715.5020671836573,0.42427700181482636,1.30676467920449,0.973599499499976,0.28613195,0.6999216568640508
0.0495,1.73874375,1.0,2713.589150245616,0.4275063589002746,1.3062260663382617,0.973948479187791,0.2860802375,0.7009744779814878
0.05,1.7375,1.0,2711.6325215548377,0.43071760024514244,1.3056822130859027,0.9742876593417168,0.286028,0.7020356651878341
0.0505,1.73624375,1.0,2709.63576140729,0.4339108267042502,1.3051330872229865,0.974617393496614,0.2859752375,0.7031052266638053
0.051000000000000004,1.734975,1.0,2707.6024458728843,0.4370861391324182,1.3045786565250859,0.9749380190232216,0.28592195,0.7041831696089725
0.051500000000000004,1.73369375,1.0,2705.5361465404894,0.44024363838446695,1.3040188887677744,0.9752498580071504,0.2858681375,0.7052695002308917
0.052000000000000005,1.7324,1.0,2703.4404302863863,0.44338342531521663,1.3034537517266251,0.9755532180725959,0.2858138,0.7063642237341701
0.0525,1.73109375,1.0,2701.318859065884,0.4465056007794877,1.302883213177211,0.9758483931546993,0.28575893750000003,0.7074673443094648
0.053,1.729775,1.0,2699.174059962929,0.449610257896723,1.302307249393654,0.9761356639559459,0.28570355000000003,0.7085788487373822
0.0535,1.72844375,1.0,2697.0080632996323,0.4526974819719062,1.3017258420724456,0.9764152984718797,0.2856476375,0.7096987124543164
0.054,1.7271,1.0,2694.827594811893,0.45576740531177096,1.3011389299300595,0.9766875551814017,0.2855912,0.7108269926038862
0.0545,1.7257437500000001,1.0,2692.6340756691984,0.4588201206019009,1.3005465001308347,0.9769526804188655,0.2855342375,0.7119636519741905
0.055,1.724375,1.0,2690.4289248720506,0.46185572052787954,1.2999485398391095,0.977210910046859,0.28547675,0.7131086525777619
0.0555,1.72299375,1.0,2688.213559217633,0.4648742977752905,1.299345036219223,0.977462469986085,0.2854187375,0.7142619556470412
0.056,1.7216,1.0,2685.989393268912,0.46787594502971724,1.2987359764355138,0.9777075767141898,0.2853602,0.7154235216298475
0.0565,1.72019375,1.0,2683.7578393275103,0.4708607549767434,1.2981213476523203,0.977946437735606,0.28530113749999997,0.7165933101848353
0.057,1.718775,1.0,2681.5203074103397,0.4738288203019525,1.2975011370339815,0.9781792520243067,0.28524155,0.7177712801769394
0.0575,1.71734375,1.0,2679.2782052294256,0.47678023369092815,1.296875331744836,0.9784062104412505,0.2851814375,0.7189573896728111
0.058,1.7159,1.0,2677.032938175972,0.47971508782925393,1.2962439189492225,0.9786274961281433,0.2851208,0.7201515959362452
0.0585,1.71444375,1.0,2674.7859093077877,0.48263347540251333,1.2956068858114795,0.9788432848790487,0.2850596375,0.7213538554235934
0.059000000000000004,1.7129750000000001,1.0,2672.538519340298,0.48553548909629,1.2949642194959463,0.979053745491251,0.28499795,0.7225641237791685
0.059500000000000004,1.71149375,1.0,2670.292166641569,0.48842122159616747,1.2943159071669608,0.979259040096687,0.2849357375,0.7237823558306408
0.06,1.71,1.0,2668.0482472302356,0.4912907655877292,1.2936619359888624,0.9794593244751634,0.284873,0.7250085055844174
0.0605,1.7084937500000001,1.0,2665.808154778089,0.494144213756559,1.2930022931259892,0.9796547483504968,0.2848097375,0.72624252622102
0.061,1.7069750000000001,1.0,2663.573280615509,0.49698165878824024,1.2923369657426802,0.9798454556706275,0.28474595,0.7274843700904433
0.0615,1.7054437500000001,1.0,2661.342318604897,0.49980316881957454,1.2916659658127483,0.9800315842670902,0.2846816375,0.7287339425590458
0.062,1.7039,1.0,2659.115728719142,0.5026088355382216,1.2909892890658012,0.9802132677382412,0.2846168,0.7299911787276134
0.0625,1.70234375,1.0,2656.898192318429,0.5053987862262322,1.2903068923327927,0.98039063532569,0.2845514375,0.7312560850257535
0.063,1.7007750000000001,1.0,2654.689879610666,0.5081731042191437,1.289618773951254,0.9805638102284981,0.28448555,0.7325285898436623
0.0635,1.69919375,1.0,2652.4909605420607,0.5109318728524931,1.288924932258716,0.980732911084301,0.28441913750000003,0.7338086209161238
0.064,1.6976,1.0,2650.3016047997708,0.5136751754618173,1.28822536559271,0.9808980521701292,0.2843522,0.7350961053219025
0.0645,1.69599375,1.0,2648.121981815304,0.5164030953826537,1.2875200722907674,0.9810593435929612,0.2842847375,0.7363909694831374
0.065,1.694375,1.0,2645.9522607671643,0.5191157159505392,1.286809050690419,0.9812168914706006,0.28421675,0.7376931391647341
0.0655,1.69274375,1.0,2643.7926105838237,0.521813120501011,1.286092299129196,0.9813707981034363,0.2841482375,0.7390025394737583
0.066,1.6911,1.0,2641.6431999471074,0.5244953923696063,1.2853698159446296,0.9815211621376067,0.2840792,0.7403190948588272
0.0665,1.6894437500000001,1.0,2639.5041972951544,0.527162614891862,1.284641599474251,0.9816680787200557,0.2840096375,0.7416427291095027
0.067,1.687775,1.0,2637.3757708255407,0.5298148714033154,1.283907648055591,0.981811639645939,0.28393955,0.7429733653556844
0.0675,1.68609375,1.0,2635.258088498879,0.5324522452395035,1.2831679600261814,0.9819519334988062,0.2838689375,0.7443109260669992
0.068,1.6844000000000001,1.0,2633.1513180418374,0.5350748197359635,1.2824225337235529,0.9820890457839635,0.2837978,0.745655333052196
0.0685,1.68269375,1.0,2631.055626950638,0.5376826782282323,1.2816713674852367,0.9822230590553919,0.2837261375,0.7470065074585356
0.069,1.680975,1.0,2628.971182494742,0.5402759040518473,1.2809144596487638,0.9823540530365745,0.28365395,0.7483643697711833
0.0695,1.67924375,1.0,2626.898151719929,0.5428545805423455,1.2801518085516657,0.9824821047355656,0.28358123749999997,0.7497288398125985
0.07,1.6775,1.0,2624.8367014523897,0.5454187910352638,1.2793834125314731,0.9826072885546115,0.283508,0.7510998367419283
0.07050000000000001,1.67574375,1.0,2622.7869983019277,0.5479686188661396,1.2786092699257177,0.9827296763946181,0.2834342375,0.7524772790543961
0.07100000000000001,1.673975,1.0,2620.749208665922,0.5505041473705098,1.2778293790719302,0.9828493377547382,0.28335995,0.7538610845806943
0.07150000000000001,1.67219375,1.0,2618.723896026924,0.5530254598358779,1.2770437346208001,0.9829663396564233,0.2832851375,0.7552511770005091
0.07200000000000001,1.6704,1.0,2616.7155147417075,0.555532633434249,1.2762522950947188,0.9830807449080033,0.2832098,0.7566475429046569
0.0725,1.66859375,1.0,2614.715966314022,0.5580257441651248,1.2754551355316803,0.9831926194239723,0.2831339375,0.7580499627207387
0.073,1.6667750000000001,1.0,2612.727350583462,0.5605048703828842,1.2746522363371597,0.9833020229085374,0.28305755,0.7594583835299649
0.0735,1.66494375,1.0,2610.7517642317057,0.5629700904419053,1.2738435779166322,0.9834090131284206,0.2829806375,0.7608727513833464
0.074,1.6631,1.0,2608.7893951351743,0.5654214824385749,1.2730291583938131,0.9835136467555411,0.2829032,0.7622929804424939
0.0745,1.6612437500000001,1.0,2606.839526327364,0.5678591244040535,1.272208984306374,0.9836159790175857,0.2828252375,0.7637189695883044
0.075,1.659375,1.0,2604.9024090884786,0.5702830932450405,1.271383053193516,0.9837160629348949,0.28274675,0.7651506327785883
0.0755,1.65749375,1.0,2602.976356174857,0.5726934653203505,1.2705513806351478,0.9838139506085333,0.2826677375,0.7665878521569367
