Time [s],Phi [rad],STIM [ ],Fsee [N],Gamma [ ],Lcerel [ ],q [ ],Lmtc [m],fisomrel [ ]
0.0,1.8,1.0,17.9684700246923,3.42214446884323e-05,1.3793395992505348,0.005000309105143794,0.288653,0.5411398866085575
0.0005,1.79999375,1.0,18.285865165080907,0.005643238798249523,1.3793013747482084,0.013007893650034439,0.2886527375,0.5412323568690027
0.001,1.799975,1.0,21.64548808322392,0.011220793999259616,1.3789355344483978,0.035734900943559855,0.28865195,0.5421169028453672
0.0015,1.79994375,1.0,31.13461770014634,0.016767063526402594,1.3780406363604307,0.07077455839485236,0.2886506375,0.5442770320797213
0.002,1.7999,1.0,53.72410906001675,0.022282222866670667,1.3763589436158892,0.11492251120617268,0.2886488,0.5483225304857524
0.0025,1.79984375,1.0,97.35777257069832,0.027766446523099453,1.373923665441568,0.16479732349851758,0.28864643749999996,0.5541488916541526
0.003,1.7997750000000001,1.0,161.26945899785437,0.033219908022258854,1.371202697422094,0.21750991659271027,0.28864354999999997,0.5606140224061265
0.0035,1.79969375,1.0,238.03533800972414,0.0386427799140225,1.3685738955143354,0.2708411113367583,0.2886401375,0.5668153174278947
0.004,1.7996,1.0,321.8414481857431,0.04403523378230328,1.3661461715274907,0.3231367822671998,0.2886362,0.5725031284303614
0.0045000000000000005,1.7994937500000001,1.0,409.6558694589562,0.049397440250251244,1.3639137057009592,0.3732442755716138,0.2886317375,0.577700302305471
0.005,1.799375,1.0,499.8096005222456,0.05472956897141738,1.3618499270004423,0.4204437144991294,0.28862675,0.582476499776067
0.0055,1.79924375,1.0,591.1901381563455,0.06003178867614049,1.3599310267791602,0.4643553985299939,0.2886212375,0.586893035592154
0.006,1.7991000000000001,1.0,682.9184142916789,0.06530426711740811,1.3581391393171203,0.5048469430730083,0.2886152,0.5909960359987001
0.006500000000000001,1.79894375,1.0,774.2752487051029,0.07054717104747868,1.3564605287908758,0.5419534806772798,0.2886086375,0.5948210823154632
0.007,1.798775,1.0,864.6879433484561,0.07576066665542584,1.3548839000290727,0.575815828743556,0.28860155,0.5983973772326376
0.0075,1.79859375,1.0,953.6338500376373,0.08094491847472352,1.3534007714423049,0.6066364255619344,0.2885939375,0.6017471133417851
0.008,1.7984,1.0,1040.7396500402656,0.08610009074817614,1.3520030345236276,0.6346470200806986,0.2885858,0.6048911469584115
0.0085,1.79819375,1.0,1125.691827826835,0.09122634668003943,1.3506838965147183,0.6600888263411301,0.2885771375,0.6078469538432856
0.009000000000000001,1.797975,1.0,1208.2406051819455,0.09632384813972042,1.3494373838807692,0.6831992649584825,0.28856795,0.6106298301867474
0.0095,1.79774375,1.0,1288.2227990486526,0.1013927568360561,1.3482577494503083,0.7042039418656456,0.2885582375,0.6132542727927497
0.01,1.7975,1.0,1365.5081795137664,0.10643323324301883,1.347140001107283,0.7233128131660091,0.288548,0.6157328432118483
0.0105,1.79724375,1.0,1439.9920453159898,0.11144543622866504,1.3460797845578265,0.7407182899524841,0.2885372375,0.6180764755115064
0.011,1.796975,1.0,1511.6290615504631,0.11642952442587215,1.3450728055600334,0.7565946128836765,0.28852595000000003,0.6202957871904573
0.0115,1.79669375,1.0,1580.4168957060508,0.12138565612712879,1.3441149484426347,0.771098497580489,0.2885141375,0.6224008362829174
0.012,1.7964,1.0,1646.3601994146645,0.1263139883101856,1.3432026163508262,0.784370359852464,0.28850180000000003,0.6244003958225371
0.0125,1.79609375,1.0,1709.46387861039,0.13121467609153414,1.342332704903458,0.7965355971270656,0.2884889375,0.6263020381169707
0.013000000000000001,1.7957750000000001,1.0,1769.7690314541003,0.13608787458766608,1.3415021097193802,0.8077057793862575,0.28847555,0.6281132304120294
0.0135,1.79544375,1.0,1827.327355596067,0.1409337379440025,1.3407079751636108,0.8179801603570381,0.2884616375,0.6298408024869654
0.014,1.7951000000000001,1.0,1882.2293640676362,0.14575242086982484,1.3399473345161659,0.8274468737735244,0.2884472,0.6314917402913075
0.0145,1.79474375,1.0,1934.5266564440446,0.15054407482313126,1.3392179289560775,0.8361844746811307,0.2884322375,0.6330714179679515
0.015,1.794375,1.0,1984.2828298623056,0.15530885085167828,1.3385175936794023,0.8442628185916146,0.28841675,0.6345849450558263
0.0155,1.79399375,1.0,2031.5800895465572,0.16004690000322253,1.3378441638821972,0.8517440475395744,0.2884007375,0.6360373754168976
0.016,1.7936,1.0,2076.500127528358,0.16475837213736516,1.3371956572055772,0.858683557362671,0.2883842,0.6374333187554173
0.0165,1.7931937500000001,1.0,2119.1474428147603,0.16944341775263785,1.3365700083577738,0.8651307151979828,0.2883671375,0.6387775174555104
0.017,1.792775,1.0,2159.591147685689,0.1741021839673253,1.3359656544033214,0.8711297425014997,0.28834955,0.6400735939456251
0.0175,1.7923437500000001,1.0,2197.907245515952,0.17873481763546206,1.335381071750355,0.8767201870145553,0.2883314375,0.6413250532894876
0.018000000000000002,1.7919,1.0,2234.181480719628,0.18334146561108267,1.334814736807009,0.8819374613183518,0.2883128,0.6425353699517008
0.0185,1.79144375,1.0,2268.4934676970424,0.18792227330872227,1.33426527592022,0.8868133636756764,0.2882936375,0.6437076700063111
0.019,1.790975,1.0,2300.9443011149474,0.19247738776675413,1.333731178992438,0.8913764249280457,0.28827395,0.6448453449244813
0.0195,1.79049375,1.0,2331.6032152364764,0.1970069519561347,1.3332113220314423,0.8956524077380796,0.2882537375,0.645950940274421
0.02,1.79,1.0,2360.5398838987535,0.20151110831025054,1.332704632926674,0.8996645402232961,0.288233,0.6470268725418593
0.0205,1.78949375,1.0,2387.829124575897,0.20598999926248815,1.3322100395675744,0.90343378857108,0.2882117375,0.6480755408498425
0.021,1.788975,1.0,2413.5485501448334,0.21044376686823127,1.3317264883427677,0.9069791118928744,0.28818995000000003,0.6490992886855089
0.021500000000000002,1.78844375,1.0,2437.7702599647896,0.21487255197846203,1.3312530196619718,0.910317697693843,0.2881676375,0.65010024542355
0.022,1.7879,1.0,2460.5724403333556,0.21927649706213018,1.3307886511011429,0.9134651306005118,0.2881448,0.6510805749447908
0.0225,1.78734375,1.0,2482.011946396397,0.22365573974573164,1.3303326361542624,0.9164356114238743,0.28812143749999997,0.6520419307760703
0.023,1.786775,1.0,2502.1483402372805,0.2280104176557622,1.3298842283153125,0.9192420585432172,0.28809755,0.6529859563418712
0.0235,1.78619375,1.0,2521.0436653589572,0.2323406684187177,1.329442681078275,0.9218962414617468,0.28807313749999996,0.653914285344254
0.024,1.7856,1.0,2538.762233520897,0.23664662966109398,1.3290072479371315,0.9244088988587698,0.2880482,0.6548285421072539
0.0245,1.78499375,1.0,2555.3572480445237,0.2409284358796305,1.328577306163133,0.9267898634269558,0.2880227375,0.6557300825082232
0.025,1.784375,1.0,2570.897377283307,0.24518622719187477,1.3281521042840092,0.9290481126731706,0.28799675,0.6566205244068137
0.025500000000000002,1.78374375,1.0,2585.430374256195,0.24942013747105887,1.3277311022720912,0.9311919051231106,0.2879702375,0.6575010350877554
0.026000000000000002,1.7831000000000001,1.0,2598.9992590245015,0.2536302989112277,1.327313816482031,0.933228826096326,0.2879432,0.6583726579718345
0.0265,1.78244375,1.0,2611.6481979965656,0.25781684370642605,1.3268997632684807,0.9351658438951885,0.2879156375,0.6592364310427656
0.027,1.781775,1.0,2623.4224061377154,0.2619799040506989,1.3264884589860917,0.9370093682719532,0.28788755,0.6600933869543595
0.0275,1.7810937500000001,1.0,2634.3680543658593,0.26611961213809093,1.326079419989516,0.9387653026437655,0.2878589375,0.6609445531227705
0.028,1.7804,1.0,2644.5313712564234,0.27023609978000823,1.3256721701214413,0.9404390917393346,0.2878298,0.6617909362512467
0.0285,1.77969375,1.0,2653.950045622626,0.2743294945810577,1.325266319139745,0.9420357730942396,0.2878001375,0.6626333598000052
0.029,1.778975,1.0,2662.676682550922,0.27839993299191446,1.3248613454484583,0.9435599878404705,0.28776995,0.6634729152851321
0.029500000000000002,1.7782437500000001,1.0,2670.7410866849664,0.282447541269278,1.3244569431269368,0.9450160566637842,0.2877392375,0.6643102425278178
0.03,1.7775,1.0,2678.173529559868,0.28647244566984786,1.3240528062545358,0.9464079820235353,0.287708,0.6651459781841846
0.0305,1.77674375,1.0,2685.004708474576,0.2904747724503235,1.3236486289106102,0.9477394756291512,0.2876762375,0.6659807557534507
0.031,1.775975,1.0,2691.2657074392423,0.29445464786740444,1.3232441051745154,0.9490139832197955,0.28764395,0.6668152055801237
0.0315,1.7751937500000001,1.0,2696.9879601977837,0.2984121981777902,1.3228389291256066,0.9502347069411371,0.2876111375,0.6676499548502282
0.032,1.7744,1.0,2702.203215325159,0.3023475496381802,1.3224327948432388,0.9514046255782204,0.2875778,0.668485627581562
0.0325,1.77359375,1.0,2706.923425461092,0.30626082688068446,1.322025579666781,0.9525265342943752,0.2875439375,0.6693224682406687
0.033,1.772775,1.0,2711.211268518649,0.3101521551108104,1.3216167000217243,0.9536029842706263,0.28750955,0.6701616653926539
0.0335,1.7719449280226829,1.0,2715.138379508683,0.31402165715283303,1.3212060256186589,0.9546364074272159,0.28747468697695266,0.6710034729153874
0.034,1.7711128548603505,1.0,2719.1493000440923,0.31786945416707424,1.3207937100861782,0.9556291058094151,0.28743973990413474,0.6718475624016106
0.0345,1.7702807816980184,1.0,2723.3266415832754,0.3216956673138558,1.3203799070528754,0.9565832302663055,0.28740479283131676,0.6726936070050731
0.035,1.769448708535686,1.0,2727.653884529989,0.3255004177534995,1.3199647701473443,0.9575007921530163,0.2873698457584988,0.6735412814558583
0.035500000000000004,1.768616635373354,1.0,2732.114582267957,0.329283826582521,1.3195484519641467,0.958383673874305,0.28733489868568085,0.674390264181497
0.036000000000000004,1.7677845622110215,1.0,2736.693645059303,0.3330460127017275,1.319131092374464,0.9592336369246659,0.2872999516128629,0.6752402610965605
0.0365,1.7669524890486892,1.0,2741.369484404781,0.33678709789965494,1.3187128897965215,0.960052339376977,0.28726500454004494,0.6760908605789234
0.037,1.766120415886357,1.0,2746.1311252248447,0.3405071989642814,1.3182939458428264,0.9608413261274406,0.28723005746722696,0.6769418496167215
0.0375,1.7652883427240247,1.0,2750.967557550448,0.34420643268358475,1.3178743621258862,0.9616020479630397,0.28719511039440904,0.677793016272516
0.038,1.7644562695616925,1.0,2755.8677349671952,0.34788491584554293,1.3174542402582088,0.9623358683419658,0.2871601633215911,0.6786441496877662
0.0385,1.7636241963993602,1.0,2760.820573288739,0.3515427652381339,1.3170336818523012,0.9630440696143642,0.28712521624877313,0.6794950400866514
0.039,1.7627921232370278,1.0,2765.8199646430407,0.35518009160747904,1.316612743234824,0.9637278533522324,0.28709026917595515,0.680345570221044
0.0395,1.7619600500746957,1.0,2770.8524860119805,0.35879701628320615,1.316191546532335,0.9643883594165285,0.2870553221031372,0.681195490757303
0.04,1.7611279769123633,1.0,2775.906705904752,0.36239365914298627,1.3157701954832408,0.9650266601970605,0.28702037503031924,0.6820445907030481
0.0405,1.7602959037500312,1.0,2780.978554117904,0.3659701309981058,1.315348727161466,0.9656437596313027,0.2869854279575013,0.6828927942526892
0.041,1.7594638305876988,1.0,2786.0639455378937,0.3695265426598512,1.314927178640934,0.9662406053807164,0.28695048088468333,0.6837400259989198
0.0415,1.7586317574253665,1.0,2791.158780060261,0.3730630049395087,1.3145055869955695,0.9668180925744806,0.2869155338118654,0.6845862109329472
0.042,1.7577996842630343,1.0,2796.258942538711,0.37657962864836486,1.3140839892992966,0.967377067266946,0.2868805867390474,0.6854312744446407
0.0425,1.756967611100702,1.0,2801.3603027650006,0.38007652459770597,1.3136624226260396,0.9679183296334329,0.28684563966622945,0.6862751423225883
0.043000000000000003,1.7561355379383696,1.0,2806.4587154793385,0.38355380359881847,1.313240924049723,0.9684426369266397,0.2868106925934115,0.687117740754068
0.043500000000000004,1.7553034647760375,1.0,2811.550020410918,0.38701157646298867,1.3128195306442703,0.9689507062138348,0.2867757455205936,0.6879589963249313
0.044,1.7544713916137051,1.0,2816.630042349003,0.39044995400150295,1.3123982794836062,0.9694432169131318,0.2867407984477756,0.6887988360193963
0.0445,1.753639318451373,1.0,2821.696026365053,0.39386904169699416,1.311977194811836,0.9699208113634725,0.28670585137495763,0.6896372127466128
0.045,1.7528072452890406,1.0,2826.746771921344,0.3972689448785254,1.3115562869038795,0.9703840978306877,0.2866709043021397,0.6904741074319756
0.0455,1.7519751721267083,1.0,2831.776634343159,0.4006497871905818,1.311135605659049,0.9708336592429344,0.2866359572293217,0.6913094224846197
0.046,1.7511430989643761,1.0,2836.784896298362,0.4040116719748374,1.310715156869498,0.9712700430206577,0.2866010101565038,0.6921431482511585
0.0465,1.7503110258020438,1.0,2841.770838513516,0.4073547025729661,1.3102949463273783,0.9716937693536137,0.2865660630836858,0.6929752751393158
0.047,1.7494789526397116,1.0,2846.7337398042087,0.4106789823266418,1.309874979824843,0.9721053328149808,0.2865311160108679,0.6938057936178352
0.0475,1.7486468794773793,1.0,2851.672877105752,0.41398461457753855,1.3094552631540448,0.9725052038650835,0.2864961689380499,0.6946346942163931
0.048,1.747814806315047,1.0,2856.587525505298,0.4172717026673302,1.3090358021071362,0.9728938302532538,0.286461221865232,0.6954619675255069
0.0485,1.7469827331527148,1.0,2861.4769582737194,0.4205403499376908,1.3086166024762698,0.9732716383256089,0.286426274792414,0.6962876041964416
0.049,1.7461506599903824,1.0,2866.3404468995536,0.4237906597302943,1.3081976700535984,0.9736390342458815,0.2863913277195961,0.6971115949411137
0.0495,1.7453185868280503,1.0,2871.1772611221004,0.4270227353868145,1.3077790106312748,0.9739964051358275,0.2863563806467781,0.6979339305319952
0.05,1.744486513665718,1.0,2875.9866689670203,0.43023668024892553,1.3073606300014513,0.9743441201411945,0.28632143357396017,0.698754601802012
0.0505,1.7436544405033856,1.0,2880.767936780822,0.4334325976583012,1.306942533956281,0.9746825314287402,0.2862864865011422,0.6995735996444429
0.051000000000000004,1.7428223673410534,1.0,2885.520454297324,0.43661058797253866,1.3065247271825977,0.9750119747157636,0.28625153942832426,0.7003909171735779
0.051500000000000004,1.741990294178721,1.0,2890.2457503015967,0.4397707128774012,1.306107195461909,0.9753327651482192,0.2862165923555063,0.701206584459326
0.052000000000000005,1.7411582210163887,1.0,2894.9415508518873,0.4429131340722952,1.305689958189927,0.9756452167523142,0.2861816452826883,0.7020205658859715
0.0525,1.7403261478540566,1.0,2899.60814668422,0.4460379457203496,1.3052730120865215,0.9759496209291145,0.2861466982098704,0.7028328701901229
0.053,1.7394940746917242,1.0,2904.245830300489,0.4491452419846936,1.3048563538715612,0.9762462563187824,0.2861117511370524,0.7036435060718669
0.0535,1.738662001529392,1.0,2908.854895947475,0.45223511702845615,1.3044399802649151,0.9765353894689418,0.28607680406423447,0.7044524821948281
0.054,1.7378299283670597,1.0,2913.4356395957197,0.45530766501476627,1.3040238879864527,0.976817275462531,0.2860418569914165,0.7052598071862272
0.0545,1.7369978552047274,1.0,2917.9883589194224,0.45836298010675314,1.303608073756043,0.9770921585079236,0.28600690991859856,0.7060654896369426
0.055,1.7361657820423952,1.0,2922.513353275556,0.46140115646754576,1.3031925342935549,0.9773602724938865,0.2859719628457806,0.7068695381015675
0.0555,1.7353337088800629,1.0,2927.010923684276,0.46442228826027315,1.3027772663188575,0.9776218415117415,0.28593701577296265,0.7076719610984683
0.056,1.7345016357177307,1.0,2931.481372808614,0.4674264696480644,1.3023622665518202,0.9778770803469328,0.2859020687001447,0.7084727671098408
0.0565,1.7336695625553984,1.0,2935.9250049352627,0.47041379479404855,1.301947531712312,0.9781261949420235,0.28586712162732675,0.7092719645817678
0.057,1.732837489393066,1.0,2940.3421259547777,0.47338435786135463,1.3015330585202016,0.9783693828330062,0.28583217455450877,0.7100695619242752
0.0575,1.732005416230734,1.0,2944.733043342809,0.4763382530131117,1.301118843695359,0.9786068335606704,0.28579722748169084,0.710865567511384
0.058,1.7311733430684015,1.0,2949.0980661408475,0.47927557441244895,1.3007048839576525,0.9788387290586389,0.28576228040887286,0.7116599896811695
0.0585,1.7303412699060692,1.0,2953.437504937931,0.48219641622249526,1.3002911760269515,0.9790652440195786,0.28572733333605493,0.7124528367358113
0.059000000000000004,1.729509196743737,1.0,2957.751671851803,0.4851008726063798,1.2998777166231252,0.979286546240973,0.28569238626323695,0.7132441169416474
0.059500000000000004,1.7286771235814047,1.0,2962.0408805110937,0.48798903772723157,1.2994645024660425,0.9795027969517488,0.28565743919041897,0.7140338385292271
0.06,1.7278450504190725,1.0,2966.305446037093,0.49086100574817954,1.2990515302755727,0.9797141511209639,0.28562249211760105,0.7148220096933616
0.0605,1.7270129772567402,1.0,2970.5454983042096,0.4937168524176995,1.2986387983984988,0.9799207563737713,0.28558754504478306,0.7156086354945816
0.061,1.7261809040944078,1.0,2974.7613434364907,0.4965566448353671,1.2982263036551027,0.9801227539750695,0.28555259797196514,0.716393723878235
0.0615,1.7253488309320757,1.0,2978.9541188011654,0.49938053380148767,1.2978140356455374,0.9803202859520234,0.28551765089914716,0.7171772964684904
0.062,1.7245167577697433,1.0,2983.124153975727,0.5021886032642907,1.2974019910257326,0.980513484185104,0.28548270382632923,0.7179593613964607
0.0625,1.7236846846074112,1.0,2987.2717799482143,0.5049809371720054,1.2969901664516175,0.9807024756542759,0.28544775675351125,0.7187399267571446
0.063,1.7228526114450788,1.0,2991.3973291014922,0.5077576194728611,1.2965785585791212,0.9808873826578052,0.2854128096806933,0.7195190006094732
0.0635,1.7220205382827465,1.0,2995.5011351965136,0.5105187341150874,1.2961671640641728,0.9810683230197285,0.28537786260787534,0.7202965909763565
0.064,1.7211884651204143,1.0,2999.583533356682,0.5132643650469133,1.2957559795627018,0.9812454102866516,0.2853429155350574,0.7210727058447279
0.0645,1.720356391958082,1.0,3003.644860051952,0.5159945962165682,1.2953450017306372,0.9814187539144967,0.28530796846223944,0.7218473531655929
0.065,1.7195243187957496,1.0,3007.6854530835567,0.5187095115722816,1.2949342272239084,0.9815884594457853,0.28527302138942146,0.7226205408540689
0.0655,1.7186922456334175,1.0,3011.7056515688387,0.5214091950622827,1.2945236526984445,0.9817546286779987,0.28523807431660353,0.7233922767894325
0.066,1.7178601724710851,1.0,3015.7057959259914,0.5240937306348009,1.294113274810175,0.9819173598235271,0.2852031272437856,0.7241625688151612
0.0665,1.717028099308753,1.0,3019.6862278595963,0.5267632022380655,1.2937030902150286,0.9820767476616855,0.2851681801709676,0.7249314247389758
0.067,1.7161960261464206,1.0,3023.647290346271,0.5294176938203058,1.293293095568935,0.9822328836832419,0.28513323309814964,0.7256988523328812
0.0675,1.7153639529840883,1.0,3027.5893276203255,0.5320572893297512,1.292883287527823,0.982385856227877,0.2850982860253317,0.7264648593332095
0.068,1.7145318798217561,1.0,3031.512685159697,0.534682072714631,1.2924736627476223,0.9825357506149694,0.2850633389525138,0.7272294534406571
0.0685,1.7136998066594238,1.0,3035.4177096721337,0.5372921279231746,1.292064217884262,0.9826826492680744,0.2850283918796958,0.7279926423203262
0.069,1.7128677334970916,1.0,3039.304749082428,0.5398875389036113,1.291654949593671,0.9828266318334392,0.2849934448068778,0.728754433601764
0.0695,1.7120356603347593,1.0,3043.1741525184325,0.5424683896041703,1.291245854531779,0.9829677752928857,0.2849584977340599,0.7295148348789979
0.07,1.711203587172427,1.0,3047.0262702983073,0.5450347639730811,1.290836929354515,0.9831061540713562,0.2849235506612419,0.7302738537105767
0.07050000000000001,1.7103715140100948,1.0,3050.8614539181413,0.547586745958573,1.290428170717808,0.983241840139418,0.284888603588424,0.7310314976196038
0.07100000000000001,1.7095394408477624,1.0,3054.6800560387546,0.5501244195088755,1.2900195752775876,0.9833749031109887,0.284853656515606,0.7317877740937746
