Time [s],Phi [rad],STIM [ ],Fsee [N],Gamma [ ],Lcerel [ ],q [ ],Lmtc [m],fisomrel [ ]
0.0,1.8,1.0,17.96684481216624,1.1010607476554861e-05,1.37933978132616,0.005000032286335487,0.288653,0.5411394461206029
0.0005,1.79999375,1.0,18.27654611201929,0.005620158155471095,1.3793024097872917,0.012943321038883206,0.2886527375,0.5412298530916884
0.001,1.799975,1.0,21.618935498867923,0.011197842820638397,1.3789382455371342,0.03561384672779496,0.28865195,0.5421103509860925
0.0015,1.79994375,1.0,31.071298842827687,0.016744241085736793,1.3780460279851308,0.07060892069491002,0.2886506375,0.5442640329230413
0.002,1.7999,1.0,53.587369125877935,0.022259528441871197,1.3763678085342785,0.11472638277920409,0.2886488,0.5483012522292878
0.0025,1.79984375,1.0,97.1276203242685,0.027743879396064798,1.3739347488713929,0.16458397123890015,0.28864643749999996,0.5541224604160981
0.003,1.7997750000000001,1.0,160.96977616542324,0.03319746747896632,1.3712139092152915,0.21728981845061388,0.28864354999999997,0.5605874796081037
0.0035,1.79969375,1.0,237.69662163209287,0.03862046524444883,1.3685843248689753,0.27062220131515585,0.2886401375,0.5667908018523014
0.004,1.7996,1.0,321.48104147046513,0.044013044280390164,1.3661557144390801,0.32292481824500885,0.2886362,0.572480844335481
0.0045000000000000005,1.7994937500000001,1.0,409.28264288749585,0.04937537521385787,1.3639224645954493,0.3730430663816784,0.2886317375,0.5776799737333354
0.005,1.799375,1.0,499.42878142559164,0.05470762770220312,1.3618580177088357,0.42025546827891974,0.28862675,0.5824578285071171
0.0055,1.79924375,1.0,590.8059009832708,0.060009970480475586,1.3599385325231894,0.4641811123360276,0.2886212375,0.5868758061385616
0.006,1.7991000000000001,1.0,682.5336713354678,0.06528257130470495,1.3581461318549606,0.504686776120115,0.2886152,0.5909800645322998
0.006500000000000001,1.79894375,1.0,773.8771946037334,0.07052559671959541,1.3564673229798352,0.5418072028669334,0.2886086375,0.5948056366313452
0.007,1.798775,1.0,864.3060680541264,0.07573921353620082,1.3548900677852418,0.575682411213697,0.28860155,0.5983834176893703
0.0075,1.79859375,1.0,953.272401231889,0.08092358590417173,1.353406330286488,0.6065149508713464,0.2885939375,0.601734584545401
0.008,1.7984,1.0,1040.3730260866832,0.08607887769927298,1.3520084318094407,0.6345367572354972,0.2885858,0.6048790304051604
0.0085,1.79819375,1.0,1125.3329124472075,0.09120525253487051,1.3506889769896355,0.6599886701278533,0.2885771375,0.6078355912562592
0.009000000000000001,1.797975,1.0,1207.8959840680195,0.09630287246653836,1.349442092390993,0.6831082132045017,0.28856795,0.6106193369432547
0.0095,1.79774375,1.0,1287.8836904338164,0.101371898848402,1.3482622364836216,0.7041211661289027,0.2885582375,0.6132443068859248
0.01,1.7975,1.0,1365.1659308842488,0.10641249187722186,1.3471443996534846,0.7232375382164505,0.288548,0.6157231051952223
0.0105,1.79724375,1.0,1439.6641235030258,0.11142481128138618,1.346083888510699,0.7406496428820966,0.2885372375,0.61806741745317
0.011,1.796975,1.0,1511.321607267022,0.11640901561334696,1.3450765610568176,0.7565318809661191,0.28852595000000003,0.6202875223507667
0.0115,1.79669375,1.0,1580.1144418880972,0.12136526230774743,1.3441185615544096,0.7710411593944708,0.2885141375,0.6223929068677425
0.012,1.7964,1.0,1646.042725919573,0.12629370778928567,1.3432063321596368,0.7843179646285882,0.28850180000000003,0.6243922626451819
0.0125,1.79609375,1.0,1709.1675436273517,0.13119450980778022,1.34233610866526,0.7964874701905286,0.2884889375,0.6262946068365027
0.013000000000000001,1.7957750000000001,1.0,1769.5024226636642,0.1360678222015927,1.3415051193964822,0.8076614538912069,0.28847555,0.6281066754655436
0.0135,1.79544375,1.0,1827.0864285964446,0.14091379857357325,1.3407106517359664,0.8179392764848005,0.2884616375,0.6298349865869038
0.014,1.7951000000000001,1.0,1881.9864907805586,0.14573259252657209,1.3399499930663763,0.8274092045603788,0.2884472,0.6314859764482484
0.0145,1.79474375,1.0,1934.2739159121427,0.15052435669276293,1.339220657865366,0.8361497389627724,0.2884322375,0.6330655142773862
0.015,1.794375,1.0,1984.0455064977104,0.1552892437906196,1.3385201237874838,0.8442306460169142,0.28841675,0.6345794827516157
0.0155,1.79399375,1.0,2031.3654924138161,0.160027403652054,1.3378464249094042,0.8517141724781611,0.2884007375,0.6360325037497906
0.016,1.7936,1.0,2076.305429709485,0.1647389856806248,1.337197686255179,0.8586557767315683,0.2883842,0.6374289553066129
0.0165,1.7931937500000001,1.0,2118.9511976236868,0.1694241392798905,1.3365720328488604,0.8651049044683947,0.2883671375,0.6387731718877093
0.017,1.792775,1.0,2159.3892472389266,0.17408301250184252,1.3359677176399518,0.8711057373594949,0.28834955,0.6400691731626327
0.0175,1.7923437500000001,1.0,2197.720326064744,0.178715754321894,1.3353829651680384,0.8766977716223929,0.2883314375,0.6413210034282344
0.018000000000000002,1.7919,1.0,2234.0130260950746,0.1833225100562894,1.3348164292703824,0.8819164889500332,0.2883128,0.642531756028798
0.0185,1.79144375,1.0,2268.343596537035,0.18790342495911438,1.334266770241061,0.8867937114571226,0.2882936375,0.6437044844152094
0.019,1.790975,1.0,2300.7958808159915,0.19245864428445467,1.3337326483741514,0.8913580238975178,0.28827395,0.6448422175037469
0.0195,1.79049375,1.0,2331.4457286892157,0.19698831142660006,1.333212870886758,0.8956351793519883,0.2882537375,0.6459476488373874
0.02,1.79,1.0,2360.3920747777474,0.20149257259777084,1.3327060776668158,0.8996483487891858,0.288233,0.6470238070266668
0.0205,1.78949375,1.0,2387.700490463106,0.20597156903841288,1.332211289676224,0.9034185317358062,0.2882117375,0.648072892256569
0.021,1.788975,1.0,2413.43598504231,0.21042544133491425,1.3317275764412224,0.9069647231417932,0.28818995000000003,0.6490969866978091
0.021500000000000002,1.78844375,1.0,2437.6675565408154,0.21485433007366297,1.3312540074880512,0.9103041228224499,0.2881676375,0.650098158555823
0.022,1.7879,1.0,2460.4678563785324,0.21925837584104713,1.3307896523429508,0.9134523298651643,0.2881448,0.6510784627003501
0.0225,1.78734375,1.0,2481.903627846202,0.22363771735302387,1.3303336686613016,0.916423530222962,0.28812143749999997,0.6520397555764202
0.023,1.786775,1.0,2502.0483737287577,0.2279924958118784,1.3298851773666671,0.9192306236413246,0.28809755,0.6529839596739878
0.0235,1.78619375,1.0,2520.961318618782,0.23232284886558763,1.3294434599163092,0.9218853913115704,0.28807313749999996,0.6539126489743979
0.024,1.7856,1.0,2538.6943351883674,0.2366289119639882,1.3290078878758338,0.9243985976216677,0.2880482,0.6548271993478405
0.0245,1.78499375,1.0,2555.301187636221,0.24091082055691654,1.328577832810848,0.9267800778629555,0.2880227375,0.6557289789072911
0.025,1.784375,1.0,2570.8373717841473,0.2451687100942092,1.328152666286958,0.9290388311708189,0.28799675,0.6566193482422205
0.025500000000000002,1.78374375,1.0,2585.359963929309,0.2494027160257027,1.3277317598697709,0.931183103037616,0.2879702375,0.6574996606271137
0.026000000000000002,1.7831000000000001,1.0,2598.9155437393842,0.2536129703942714,1.327314596298779,0.9332204752515936,0.2879432,0.6583710301331869
0.0265,1.78244375,1.0,2611.5657646668246,0.25779961124255696,1.3269005292817808,0.9351578951847782,0.2879156375,0.6592348340411083
0.027,1.781775,1.0,2623.353854013352,0.26196277049531524,1.3264890945760415,0.9370017792712839,0.28788755,0.6600920635297087
0.0275,1.7810937500000001,1.0,2634.3173652980868,0.2661025779767322,1.326079888981636,0.9387580453302278,0.2878589375,0.6609435778116195
0.028,1.7804,1.0,2644.494642000965,0.270219163510994,1.3256725092986401,0.9404321501920107,0.2878298,0.6617902317829311
0.0285,1.77969375,1.0,2653.924748972778,0.2743126569222867,1.325266552327129,0.9420291316580544,0.2878001375,0.6626328760753286
0.029,1.778975,1.0,2662.6474074491002,0.2783831880347964,1.3248616148671781,0.9435536461352607,0.28776995,0.6634723570978611
0.029500000000000002,1.7782437500000001,1.0,2670.7029336689566,0.2824308866727091,1.3244572937188628,0.9450100024381302,0.2877392375,0.6643095170683406
0.03,1.7775,1.0,2678.1238023934015,0.28645587805832157,1.324053262568491,0.946402200859781,0.287708,0.6651450351362136
0.0305,1.77674375,1.0,2684.9522079724256,0.2904582955974472,1.3236491100605463,0.9477339428274841,0.2876762375,0.665979762618037
0.031,1.775975,1.0,2691.218316432161,0.29443826569436626,1.3232445389918872,0.9490086769036052,0.28764395,0.6668143112625073
0.0315,1.7751937500000001,1.0,2696.94828124338,0.29839591209899,1.322839291961039,0.9502296119529743,0.2876111375,0.667649207800048
0.032,1.7744,1.0,2702.168545613592,0.3023313585612295,1.3224331115665264,0.9513997329433314,0.2875778,0.6684849762931375
0.0325,1.77359375,1.0,2706.9058148624854,0.30624472883099585,1.3220257404068745,0.9525218193098827,0.2875439375,0.6693221381231005
0.033,1.772775,1.0,2711.1870302661905,0.31013614665820016,1.3216169210806081,0.9535984616021934,0.28750955,0.6701612119726719
0.0335,1.7719437500000002,1.0,2715.039344370694,0.31400573579275354,1.3212063961862526,0.9546320765924255,0.2874746375,0.6710027138043373
0.034,1.7711000000000001,1.0,2718.4900977739717,0.317853619984567,1.3207939083223328,0.9556249210035037,0.2874392,0.6718471568344475
0.0345,1.7702437500000001,1.0,2721.5488667832597,0.32167991231297277,1.3203793633073397,0.9565791191890536,0.2874032375,0.6726947180063254
0.035,1.7693750000000001,1.0,2724.257564974072,0.3254847486723783,1.3199623737472246,0.9574966323389715,0.28736675,0.6735461715116116
0.035500000000000004,1.76849375,1.0,2726.635484689331,0.32926824859817094,1.3195427594168547,0.9583793145281113,0.2873297375,0.6744018651283868
0.036000000000000004,1.7676,1.0,2728.6978020575784,0.3330305288241959,1.3191203783999503,0.9592289063079864,0.2872922,0.6752620666131139
0.0365,1.76669375,1.0,2730.45977377622,0.3367717060842986,1.3186950887802311,0.9600470398635503,0.2872541375,0.6761270420515326
0.037,1.765775,1.0,2731.9367282773164,0.34049189711232436,1.318266748641417,0.9608352469801084,0.28721555,0.6769970558329754
0.0375,1.76484375,1.0,2733.1440573406744,0.3441912186421185,1.3178352160672278,0.9615949663390062,0.2871764375,0.6778723706234013
0.038,1.7639,1.0,2734.0972081526156,0.3478697874075263,1.3174003491413837,0.962327550205443,0.28713679999999997,0.678753247337142
0.0385,1.76294375,1.0,2734.8116758124747,0.35152772014239303,1.3169620059476042,0.9630342705651773,0.28709663750000003,0.6796399451073691
0.039,1.761975,1.0,2735.3029962838605,0.3551651335805641,1.3165200445696092,0.963716324761048,0.28705595,0.6805327212552698
0.0395,1.7609937500000001,1.0,2735.5867397945203,0.35878214445588485,1.3160743230911192,0.9643748406750469,0.2870147375,0.6814318312579427
0.04,1.76,1.0,2735.674094112688,0.36237886345409337,1.3156247396409724,0.9650108839631543,0.286973,0.6823374481076798
0.0405,1.7589937500000001,1.0,2735.5788125090007,0.36595540806731286,1.3151711692605412,0.9656254590571319,0.2869307375,0.6832497897542835
0.041,1.757975,1.0,2735.316064138085,0.36951189768746073,1.3147134743010567,0.9662195132648157,0.28688795,0.6841690978742287
0.0415,1.75694375,1.0,2734.8944104028483,0.37304844180147295,1.3142515772384333,0.966793944747762,0.2868446375,0.6850954917192505
0.042,1.7559,1.0,2734.322424434185,0.37656514989628537,1.3137854005485863,0.9673496023955631,0.28680079999999997,0.6860290892938881
0.0425,1.75484375,1.0,2733.6086886777593,0.38006213145883394,1.3133148667074301,0.967887289029567,0.2867564375,0.6869700073345194
0.043000000000000003,1.753775,1.0,2732.7617926126313,0.38353949597605463,1.3128398981908798,0.9684077643668593,0.28671155,0.6879183612880102
0.043500000000000004,1.75269375,1.0,2731.7903306049334,0.3869973529348833,1.31236041747485,0.9689117477646806,0.28666613750000003,0.6888742652899791
0.044,1.7516,1.0,2730.7028998930946,0.3904358118222559,1.3118763470352555,0.9693999207635886,0.2866202,0.6898378321426815
0.0445,1.75049375,1.0,2729.508098707725,0.3938549821251084,1.3113876093480112,0.9698729294459821,0.2865737375,0.6908091732925075
0.045,1.7493750000000001,1.0,2728.214524523833,0.39725497333037674,1.310894126889032,0.9703313866250779,0.28652675,0.6917883988070999
0.0455,1.74824375,1.0,2726.8303258212995,0.40063589348761025,1.3103958261958728,0.9707758739822221,0.2864792375,0.6927756093118034
0.046,1.7471,1.0,2725.3575036717552,0.4039978310520936,1.3098926896954681,0.9712069453159488,0.2864312,0.6937707936011106
0.0465,1.7459437500000001,1.0,2723.8120944000643,0.4073409244468894,1.3093845721275348,0.971625124202228,0.28638263750000004,0.6947741917393566
0.047,1.744775,1.0,2722.1980302486804,0.4106652752174914,1.3088714382668234,0.9720309113025812,0.28633355,0.6957858246906374
0.0475,1.74359375,1.0,2720.519241603018,0.4139709849093933,1.3083532528880852,0.9724247827812649,0.28628393750000003,0.6968057124787518
0.048,1.7424,1.0,2718.7796565135036,0.4172581550680887,1.3078299807660712,0.972807191729561,0.2862338,0.6978338741758938
0.0485,1.74119375,1.0,2716.9832002463518,0.4205268872390713,1.307301586675532,0.9731785694944793,0.2861831375,0.6988703278912645
0.049,1.739975,1.0,2715.1337948606447,0.4237772829678347,1.306768035391219,0.9735393269191145,0.28613195,0.699915090759604
0.0495,1.73874375,1.0,2713.2353588137994,0.4270094437998726,1.3062292916878828,0.9738898555012835,0.2860802375,0.700968178929648
0.05,1.7375,1.0,2711.291806594127,0.4302234712806787,1.3056853203402745,0.9742305284765255,0.286028,0.7020296075524992
0.0505,1.73624375,1.0,2709.3070483808638,0.4334194669557466,1.3051360861231451,0.9745617018310364,0.2859752375,0.7030993907699252
0.051000000000000004,1.734975,1.0,2707.284989732242,0.4365975323705701,1.3045815538112455,0.9748837152496592,0.28592195,0.7041775417025745
0.051500000000000004,1.73369375,1.0,2705.229531300185,0.4397577690706426,1.3040216881793267,0.9751968930036351,0.2858681375,0.705264072438113
0.052000000000000005,1.7324,1.0,2703.1445685732997,0.44290027860145803,1.3034564540021396,0.975501544782438,0.2858138,0.7063589940192836
0.0525,1.73109375,1.0,2701.0339916470834,0.4460251625085099,1.3028858160544354,0.9757979664736738,0.28575893750000003,0.7074623164318836
0.053,1.729775,1.0,2698.899447583729,0.44913250984388003,1.3023097595633935,0.9760864408796182,0.28570355000000003,0.7085740091604695
0.0535,1.72844375,1.0,2696.7427470596263,0.45222241447593736,1.30172826823989,0.9763672388523846,0.2856476375,0.7096940438295821
0.054,1.7271,1.0,2694.571270069193,0.45529500335224976,1.3011412748215083,0.976640619693874,0.2855912,0.7108224891545817
0.0545,1.7257437500000001,1.0,2692.386433816308,0.4583503692252573,1.300548766510892,0.9769068314164884,0.2855342375,0.7119593078723896
0.055,1.724375,1.0,2690.1896533564004,0.46138860484740013,1.2999507305106848,0.9771661114754787,0.28547675,0.7131044619454929
0.0555,1.72299375,1.0,2687.9823415616943,0.4644098029711184,1.2993471540235306,0.9774186873038558,0.2854187375,0.7142579125574382
0.056,1.7216,1.0,2685.765909089237,0.46741405634885214,1.2987380242520727,0.977664776815917,0.2853602,0.7154196201083163
0.0565,1.72019375,1.0,2683.541764353274,0.4704014577330416,1.298123328398955,0.9779045888814758,0.28530113749999997,0.7165895442102321
0.057,1.718775,1.0,2681.311313500997,0.4733720998761268,1.297503053666821,0.9781383237727157,0.28524155,0.7177676436827698
0.0575,1.71734375,1.0,2679.0759603917268,0.4763260755305479,1.2968771872583145,0.9783661735854641,0.2851814375,0.7189538765484429
0.058,1.7159,1.0,2676.8371065800493,0.479263477448745,1.296245716376079,0.9785883226365426,0.2851208,0.720148200028137
0.0585,1.71444375,1.0,2674.5961513026546,0.48218439838315824,1.2956086282227584,0.9788049478387292,0.2850596375,0.7213505705365404
0.059000000000000004,1.7129750000000001,1.0,2672.3544914681506,0.48508893108622775,1.2949659100009963,0.9790162190547634,0.28499795,0.7225609436775644
0.059500000000000004,1.71149375,1.0,2670.1135216514517,0.4879771683103936,1.294317548913436,0.9792222994317223,0.2849357375,0.7237792742397552
0.06,1.71,1.0,2667.8746340909256,0.49084920280809596,1.2936635321627215,0.979423345716996,0.284873,0.7250055161916908
0.0605,1.7084937500000001,1.0,2665.6392186898447,0.49370512733177496,1.2930038469514964,0.9796195085570157,0.2848097375,0.7262396226773726
0.061,1.7069750000000001,1.0,2663.408663020926,0.4965450346338707,1.2923384804824045,0.9798109327797957,0.28474595,0.7274815460116033
0.0615,1.7054437500000001,1.0,2661.183105029019,0.4993690021944129,1.2916674314402314,0.9799977570749734,0.2846816375,0.7287312163171489
0.062,1.7039,1.0,2658.9621743588364,0.5021771076679009,1.2909907031887868,0.9801801151413546,0.2846168,0.7299885543931612
0.0625,1.70234375,1.0,2656.7497583520685,0.5049694819086934,1.290308259870405,0.9803581376583554,0.2845514375,0.7312535530963565
0.063,1.7007750000000001,1.0,2654.5460801732165,0.5077462085200928,1.2896200993408262,0.9805319485457523,0.28448555,0.7325261417659756
0.0635,1.69919375,1.0,2652.3513626346876,0.5105073711054021,1.2889262194557907,0.9807016671294679,0.28441913750000003,0.7338062490783939
0.064,1.6976,1.0,2650.1658281996893,0.5132530532679239,1.2882266180710389,0.980867408344071,0.2843522,0.7350938030463376
0.0645,1.69599375,1.0,2647.989698986457,0.5159833386109609,1.2875212930423112,0.9810292829249078,0.2842847375,0.736388731018104
0.065,1.694375,1.0,2645.8231967716065,0.518698310737816,1.2868102422253478,0.9811873975904642,0.28421675,0.7376909596767772
0.0655,1.69274375,1.0,2643.6665429937575,0.5213980532517918,1.2860934634758894,0.9813418552155284,0.2841482375,0.739000415039445
0.066,1.6911,1.0,2641.5199587577094,0.5240826497561911,1.285370954649676,0.9814927549956738,0.2840792,0.7403170224564175
0.0665,1.6894437500000001,1.0,2639.38366483852,0.5267521838543165,1.2846427136024483,0.9816401926035587,0.2840096375,0.741640706610442
0.067,1.687775,1.0,2637.2578816851133,0.529406739149471,1.2839087381899463,0.981784260337507,0.28393955,0.74297139151592
0.0675,1.68609375,1.0,2635.1428294248876,0.5320463992449572,1.2831690262679107,0.9819250472627963,0.2838689375,0.7443090005181228
0.068,1.6844000000000001,1.0,2633.0387278679104,0.5346712477440777,1.2824235756920819,0.9820626393460666,0.2837978,0.7456534562924073
0.0685,1.68269375,1.0,2630.9457965112147,0.5372813682501354,1.2816723843181999,0.9821971195832261,0.2837261375,0.7470046808434322
0.069,1.680975,1.0,2628.8642545434254,0.539876844366433,1.2809154500020052,0.982328568121209,0.28365395,0.7483625955043716
0.0695,1.67924375,1.0,2626.7943208492275,0.5424577596962733,1.2801527705992384,0.9824570623739273,0.28358123749999997,0.7497271209361305
0.07,1.6775,1.0,2624.7362140141604,0.5450241978429589,1.2793843439656396,0.9825826771327248,0.283508,0.7510981771265599
0.07050000000000001,1.67574375,1.0,2622.6901523294555,0.5475762424097925,1.2786101679569493,0.9827054846716314,0.2834342375,0.7524756833896701
0.07100000000000001,1.673975,1.0,2620.6563537966786,0.5501139770000771,1.2778302404289077,0.982825554847697,0.28335995,0.7538595583648449
0.07150000000000001,1.67219375,1.0,2618.623710636291,0.5526374814220282,1.2770446643384423,0.982942959763504,0.2832851375,0.7552495343163259
0.07200000000000001,1.6704009579432357,1.0,2616.662267484678,0.5551468316868998,1.2762532220346894,0.9830577544164396,0.2832098402336159,0.756645909806928
0.0725,1.6686058516719664,1.0,2615.1825104567365,0.5576421064992634,1.2754562682039567,0.9831700178810696,0.28313444577022256,0.7580479729182075
0.073,1.666810745400697,1.0,2614.2524620380127,0.5601233844983495,1.274654212399877,0.9832798292548598,0.2830590513068293,0.7594549222289645
0.0735,1.6650156391294277,1.0,2613.8277367175388,0.5625907443233885,1.2738474641760829,0.983387265246788,0.28298365684343596,0.7608659641719675
0.074,1.6632205328581584,1.0,2613.8670008896615,0.5650442640564675,1.2730364063146418,0.9834923990585696,0.28290826238004263,0.7622803597792916
0.0745,1.6614254265868893,1.0,2614.326991063445,0.5674840220473043,1.2722214407286159,0.9835953025829971,0.28283286791664936,0.7636973444121068
0.075,1.65963032031562,1.0,2615.175214643065,0.56991009498356,1.2714028701802969,0.9836960411781958,0.282757473453256,0.7651163330927836
