Time [s],Phi [rad],STIM [ ],Fsee [N],Gamma [ ],Lcerel [ ],q [ ],Lmtc [m],fisomrel [ ]
0.0,1.8,1.0,19.148476446696883,0.0011095114433525308,1.3792095057753218,0.005315914358423168,0.288653,0.5414545622756257
0.0005,1.79999375,1.0,19.777548276136084,0.006712497270372538,1.3791389663418876,0.016272411555656972,0.2886527375,0.5416251409477202
0.001,1.799975,1.0,23.939197608336265,0.01228405477709018,1.378707306467208,0.04156551603536791,0.28865195,0.5426682909067355
0.0015,1.79994375,1.0,35.267814437138064,0.017824360251621534,1.3776998304677082,0.07860546230753855,0.2886506375,0.5450983356653843
0.002,1.7999,1.0,61.44069750529261,0.023333588992933356,1.3758757602638756,0.1241003312273039,0.2886488,0.5494815460652217
0.0025,1.79984375,1.0,109.3358894717872,0.02881191531762466,1.373363895097872,0.17472074259607281,0.28864643749999996,0.5554827864711266
0.003,1.7997750000000001,1.0,176.23941912273577,0.03425951256290522,1.3706553194754185,0.2277071935001223,0.28864354999999997,0.5619089098997941
0.0035,1.79969375,1.0,254.61946321833346,0.039676553094021,1.3680720325736233,0.28095500029523973,0.2886401375,0.5679941927204133
0.004,1.7996,1.0,339.29103971251357,0.045063208307918844,1.3656903642881562,0.33290961031356137,0.2886362,0.5735668286568739
0.0045000000000000005,1.7994937500000001,1.0,427.59796705543107,0.05041964865587843,1.3634972469886033,0.38250721428702056,0.2886317375,0.5786662992082472
0.005,1.799375,1.0,518.0182069158773,0.055746043593952924,1.3614666089204452,0.4291004728830937,0.28862675,0.5833606206490878
0.0055,1.79924375,1.0,609.4951267867962,0.061042561693745875,1.359576238006921,0.4723639238150232,0.2886212375,0.5877070441989483
0.006,1.7991000000000001,1.0,701.1738801323341,0.06630937046309193,1.357809588635179,0.5122029618842203,0.2886152,0.5917484001298594
0.006500000000000001,1.79894375,1.0,792.3783114041005,0.07154663667873029,1.3561533613387073,0.5486770013291671,0.2886086375,0.595519079104401
0.007,1.798775,1.0,882.5172490953231,0.0767545258474659,1.3545974357296435,0.581941976256871,0.28860155,0.5990454673914583
0.0075,1.79859375,1.0,971.1416316943295,0.08193320302926893,1.3531327633234542,0.6122075344593658,0.2885939375,0.6023509294245577
0.008,1.7984,1.0,1057.8593220717487,0.08708283186924574,1.3517520559185459,0.6397089023850648,0.2885858,0.6054543723121052
0.0085,1.79819375,1.0,1142.3645505129173,0.09220357518050043,1.3504487790374144,0.6646874379566956,0.2885771375,0.6083726188494434
0.009000000000000001,1.797975,1.0,1224.4485989503457,0.09729559548486291,1.3492166897757383,0.6873785935910667,0.28856795,0.6111215037693742
0.0095,1.79774375,1.0,1303.9288728697754,0.10235905351513538,1.348050572326951,0.7080054406270317,0.2885582375,0.6137142828535775
0.01,1.7975,1.0,1380.6784414591107,0.10739410936480638,1.3469455850690832,0.7267746773662948,0.288548,0.6161631409472945
0.0105,1.79724375,1.0,1454.631776368072,0.11240092248230109,1.345897041538188,0.7438750596516954,0.2885372375,0.6184797087217128
0.011,1.796975,1.0,1525.7527797080438,0.11737965177133297,1.344900696831547,0.7594774390596679,0.28852595000000003,0.6206744557561014
0.0115,1.79669375,1.0,1594.0065269414426,0.1223304540462193,1.343952962019659,0.7737355292623856,0.2885141375,0.6227562497382111
0.012,1.7964,1.0,1659.4013406955046,0.12725348590047578,1.3430502871866055,0.7867867397926744,0.28850180000000003,0.6247337387155214
0.0125,1.79609375,1.0,1721.9769495823307,0.13214890348620725,1.3421892455898983,0.7987535765264908,0.2884889375,0.6266151792175265
0.013000000000000001,1.7957750000000001,1.0,1781.784783868763,0.13701686253056272,1.3413667015806472,0.8097451297042695,0.28847555,0.6284080837115733
0.0135,1.79544375,1.0,1838.8581095020234,0.1418575159110702,1.3405800802123908,0.8198585534718036,0.2884616375,0.6301186510284484
0.014,1.7951000000000001,1.0,1893.2567218894485,0.1466710165052577,1.3398268065386678,0.8291801510394312,0.2884472,0.6317530024162337
0.0145,1.79474375,1.0,1945.059911579844,0.151457516826128,1.339104356594528,0.8377866205297215,0.2884322375,0.6333170769726123
0.015,1.794375,1.0,1994.3525783954956,0.15621716885291,1.3384103789935928,0.845746206669208,0.28841675,0.6348163756039951
0.0155,1.79399375,1.0,2041.2214946050906,0.16095012409643258,1.337742703526006,0.8531196913365,0.2884007375,0.6362559509405112
0.016,1.7936,1.0,2085.7301690087656,0.16565653100846045,1.3370995749383179,0.8599613415360298,0.2883842,0.6376399125523131
0.0165,1.7931937500000001,1.0,2127.9556586801295,0.17033653804075838,1.3364792379770791,0.8663195519625888,0.2883671375,0.6389723291146816
0.017,1.792775,1.0,2167.9874281484995,0.17499029364509103,1.3358799373888397,0.8722375409353348,0.28834955,0.6402572310576184
0.0175,1.7923437500000001,1.0,2205.9086792660696,0.1796179447145403,1.3353000958491594,0.8777540098994162,0.2883314375,0.6414982325368128
0.018000000000000002,1.7919,1.0,2241.821644332007,0.18421963987482276,1.3347380430518756,0.8829036014286058,0.2883128,0.6426991152225787
0.0185,1.79144375,1.0,2275.797222387898,0.18879552358832308,1.3341925120748854,0.8877174971415899,0.2882936375,0.6438627706411912
0.019,1.790975,1.0,2307.907097217746,0.19334573966258645,1.3336622995180198,0.8922237301429655,0.28827395,0.6449919320164134
0.0195,1.79049375,1.0,2338.2293901959206,0.19787043190515793,1.33314620198111,0.8964475299112512,0.2882537375,0.6460893115611016
0.02,1.79,1.0,2366.8481170079344,0.2023697441235826,1.332643016063987,0.9004116399900595,0.288233,0.6471576016066775
0.0205,1.78949375,1.0,2393.826508996478,0.20684381774538982,1.3321517923478157,0.9041366523000445,0.2882117375,0.6481989376279769
0.021,1.788975,1.0,2419.2769486492057,0.21129279751256377,1.3316711488571842,0.9076410961110445,0.28818995000000003,0.6492163552798329
0.021500000000000002,1.78844375,1.0,2443.2503534213893,0.2157168224718129,1.3312003409571886,0.9109418892577179,0.2881676375,0.6502115247125064
0.022,1.7879,1.0,2465.7993845974192,0.2201160315498623,1.330738637662837,0.9140543813574469,0.2881448,0.6511860763932737
0.0225,1.7873437918665427,1.0,2486.981586261807,0.2244905636734372,1.3302853079891386,0.9169925183244297,0.2881214392583948,0.6521416305054843
0.023,1.7867823149323105,1.0,2507.1975364143223,0.22884055776926265,1.3298396209511014,0.9197689901574647,0.28809785722715703,0.653079797355975
0.0235,1.7862208379980782,1.0,2526.752323520058,0.23316615137419178,1.3294009526723307,0.9223953807297489,0.28807427519591927,0.6540019527377581
0.024,1.785659361063846,1.0,2545.6541078287837,0.23746748315840688,1.328969145014354,0.9248823474140692,0.2880506931646815,0.6549084873358577
0.0245,1.7850978841296137,1.0,2563.9202754786374,0.24174468863332532,1.3285439586394534,0.9272396116823391,0.28802711113344376,0.6557999593160624
0.025,1.7845364071953815,1.0,2581.5708116640476,0.2459979019917986,1.3281251361150277,0.9294760653219534,0.288003529102206,0.6566769612547658
0.025500000000000002,1.7839749302611494,1.0,2598.6263556477047,0.2502272574266783,1.3277124200084762,0.9315998561250866,0.2879799470709683,0.6575400821817222
0.026000000000000002,1.783413453326917,1.0,2615.1081651720583,0.25443288913081585,1.3273055528871975,0.933618460220617,0.28795636503973054,0.6583899076824169
0.0265,1.782851976392685,1.0,2631.0275450133317,0.2586149211048964,1.3269043748747593,0.9355387572578417,0.2879327830084928,0.6592268166063229
0.027,1.7822904994584527,1.0,2646.4179781789426,0.26277349773533704,1.3265085253196824,0.9373670542888755,0.28790920097725503,0.6600516036146884
0.0275,1.7817290225242204,1.0,2661.3054483527076,0.2669087566382818,1.3261177186129585,0.9391091692618736,0.2878856189460173,0.6608649030825231
0.028,1.7811675455899882,1.0,2675.705185594286,0.2710208248780243,1.3257317726739999,0.9407704786544425,0.2878620369147795,0.6616671309650946
0.0285,1.780606068655756,1.0,2689.632794876089,0.27510982951885826,1.3253505054222194,0.9423559468773813,0.28783845488354176,0.6624587009614361
0.029,1.7800445917215237,1.0,2703.1042368280127,0.2791758976250772,1.3249737347770294,0.9438701632184185,0.287814872852304,0.6632400245697352
0.029500000000000002,1.7794831147872916,1.0,2716.1358092168107,0.28321915626097494,1.3246012786578425,0.9453173750317873,0.28779129082106625,0.6640115111406049
0.03,1.7789216378530595,1.0,2728.744129161045,0.28723973249084495,1.3242329549840715,0.9467015175959815,0.2877677087898285,0.6647735679282434
0.0305,1.778360160918827,1.0,2740.946116080799,0.29123775337898095,1.3238685816751286,0.9480262410104152,0.28774412675859073,0.665526600139479
0.031,1.777798683984595,1.0,2752.7589753825264,0.29521334598967663,1.3235079766504265,0.9492949344568381,0.287720544727353,0.6662710109806986
0.0315,1.7772372070503628,1.0,2764.200182878915,0.2991666373872256,1.3231509578293779,0.9505107481122951,0.2876969626961152,0.6670072017026647
0.032,1.7766757301161304,1.0,2775.287469943947,0.3030977546359215,1.322797343131395,0.9516766129663784,0.28767338066487746,0.6677355716432156
0.0325,1.7761142531818983,1.0,2786.0334808346497,0.3070068182650986,1.3224469984166087,0.9527952625555114,0.2876497986336397,0.6684564196815037
0.033,1.7755527762476662,1.0,2796.453557468967,0.31089395441853274,1.3220997670101113,0.9538692441749546,0.28762621660240195,0.6691700895791837
0.0335,1.7749912993134338,1.0,2806.5675494695865,0.31475929477009174,1.3217554535944878,0.9549009318157399,0.2876026345711642,0.6698770028131551
0.034,1.7744298223792017,1.0,2816.3855387436142,0.31860295813989675,1.3214139521935486,0.9558925492338778,0.28757905253992644,0.6705773958396788
0.0345,1.7738683454449695,1.0,2825.9177437835806,0.32242506334806875,1.321075156831104,0.9568461752226715,0.28755547050868874,0.6712715040366133
0.035,1.7733068685107372,1.0,2835.1745131842154,0.32622572921472875,1.3207389615309646,0.957763754763341,0.2875318884774509,0.6719595617220613
0.035500000000000004,1.772745391576505,1.0,2844.166319409643,0.3300050745599979,1.32040526031694,0.9586471091945712,0.2875083064462132,0.672641802172302
0.036000000000000004,1.7721839146422729,1.0,2852.9037528074355,0.3337632182039972,1.320073947212841,0.9594979454975093,0.28748472441497547,0.6733184576390032
0.0365,1.7716224377080405,1.0,2861.397515873757,0.33750027896684753,1.319744916242478,0.960317864782305,0.2874611423837377,0.6739897593657231
0.037,1.7710609607738084,1.0,2869.658417766436,0.3412163756686702,1.3194180614296607,0.9611083700530596,0.28743756035249995,0.6746559376036911
0.0375,1.7704994838395762,1.0,2877.697369067046,0.34491162712958606,1.3190932767981995,0.961870873319922,0.2874139783212622,0.6753172216268738
0.038,1.7699380069053439,1.0,2885.5253767924037,0.3485861521697163,1.3187704563719052,0.9626067021198473,0.28739039629002444,0.6759738397463244
0.0385,1.7693765299711117,1.0,2893.1469444949444,0.35224005671496483,1.3184495524019624,0.963317108375323,0.2873668142587867,0.6766259010682074
0.039,1.7688150530368796,1.0,2900.5764406250228,0.355873469658666,1.3181304306262416,0.9640032674251428,0.28734323222754893,0.6772736897626342
0.0395,1.7682535761026472,1.0,2907.824111171188,0.3594865108531883,1.3178129939701821,0.9646662882912778,0.28731965019631117,0.6779174134684598
0.04,1.767692099168415,1.0,2914.8958666965973,0.3630792910239875,1.3174971841491085,0.9653072184089952,0.2872960681650734,0.6785572004380965
0.0405,1.767130622234183,1.0,2921.7976679680546,0.3666519208965197,1.3171829428783448,0.965927046098502,0.2872724861338357,0.6791931784025276
0.041,1.7665691452999506,1.0,2928.5355238910415,0.37020451119624076,1.3168702118732156,0.9665267045233518,0.2872489041025979,0.6798254745772432
0.0415,1.7660076683657184,1.0,2935.115489521182,0.37373717264860656,1.3165589328490448,0.9671070753440403,0.2872253220713602,0.6804542156679654
0.042,1.7654461914314863,1.0,2941.5436641490255,0.37725001597907315,1.3162490475211572,0.9676689920931851,0.28720174004012244,0.6810795278761506
0.0425,1.764884714497254,1.0,2947.82618946249,0.3807431519130964,1.3159404976048772,0.9682132432961568,0.2871781580088847,0.6817015369042813
0.043000000000000003,1.7643232375630218,1.0,2953.969247782963,0.3842166911761322,1.3156332248155287,0.96874057535876,0.28715457597764693,0.6823203679609373
0.043500000000000004,1.7637617606287896,1.0,2959.979060377365,0.38767074449363653,1.3153271708684364,0.969251695241547,0.2871309939464092,0.6829361457656502
0.044,1.7632002836945573,1.0,2965.8618858453583,0.3911054225910653,1.3150222774789246,0.9697472729385095,0.2871074119151714,0.683548994553544
0.0445,1.7626388067603251,1.0,2971.624018582122,0.3945208361938745,1.3147184863623178,0.9702279437762734,0.28708382988393366,0.6841590380797563
0.045,1.762077329826093,1.0,2977.2672405737203,0.39791707967089046,1.314415778805088,0.970694311209371,0.2870602478526959,0.6847663202754781
0.0455,1.7615158528918606,1.0,2982.7993748387676,0.4012942738633915,1.314114083705807,0.9711469479639455,0.28703666582145815,0.6853709898522363
0.046,1.7609543759576285,1.0,2988.2276858637742,0.40465253682919905,1.313813335140859,0.9715863979830125,0.2870130837902204,0.6859731845911063
0.0465,1.7603928990233964,1.0,2993.555291911217,0.4079919707591695,1.3135135034672991,0.9720131786764444,0.28698950175898263,0.686572969208099
0.047,1.759831422089164,1.0,2998.7853291198,0.4113126778441593,1.3132145590421818,0.9724277820471535,0.2869659197277449,0.6871704081760576
0.0475,1.7592699451549318,1.0,3003.92095091114,0.4146147602750249,1.3129164722225615,0.9728306761776537,0.2869423376965071,0.6877655657263613
0.048,1.7587084682206997,1.0,3008.9653274168986,0.41789832024262286,1.3126192133654926,0.9732223066162166,0.28691875566526936,0.688358505850576
0.0485,1.7581469912864673,1.0,3013.9216449244004,0.42116345993780946,1.3123227528280297,0.9736030976702783,0.2868951736340316,0.6889492923020456
0.049,1.7575855143522352,1.0,3018.79310534245,0.42441028155144117,1.3120270609672273,0.9739734536141005,0.28687159160279385,0.6895379885974305
0.0495,1.757024037418003,1.0,3023.582925686468,0.42763888727437455,1.31173210814014,0.9743337598171085,0.2868480095715561,0.6901246580181888
0.05,1.7564625604837707,1.0,3028.294337582792,0.4308493792974659,1.3114378647038225,0.9746843837987929,0.28682442754031834,0.6907093636120012
0.0505,1.7559010835495386,1.0,3032.930586792944,0.43404185981157184,1.311144301015329,0.9750256762155717,0.2868008455090806,0.6912921681941402
0.051000000000000004,1.7553396066153064,1.0,3037.494932757038,0.4372164310075487,1.3108513874317143,0.9753579717845773,0.2867772634778429,0.6918731343487827
0.051500000000000004,1.754778129681074,1.0,3041.990648156632,0.44037319507625294,1.3105590943100325,0.9756815901489198,0.2867536814466051,0.692452324430269
0.052000000000000005,1.754216652746842,1.0,3046.421018497513,0.443512254208541,1.3102673920073384,0.9759968366886266,0.28673009941536737,0.6930298005643003
0.0525,1.7536551758126098,1.0,3050.786367770539,0.4466336887299286,1.3099762764496838,0.9763040026010297,0.2867065173841296,0.6936055741020064
0.053,1.7530936988783774,1.0,3055.0903534254176,0.4497376098740352,1.3096857149547028,0.9766033677767132,0.28668293535289185,0.6941797128603144
0.0535,1.7525322219441453,1.0,3059.33786963546,0.4528241372027773,1.3093956643322344,0.9768952001162732,0.2866593533216541,0.6947523051416306
0.054,1.7519707450099131,1.0,3063.530411248144,0.45589336379767575,1.3091061106932436,0.9771797550998631,0.28663577129041634,0.6953233811610212
0.0545,1.7514092680756808,1.0,3067.6694792172184,0.45894538274025165,1.3088170401486947,0.9774572773336133,0.2866121892591786,0.6958929710261463
0.055,1.7508477911414486,1.0,3071.7565804516935,0.461980287112026,1.3085284388095526,0.9777280011033036,0.28658860722794083,0.6964611047376918
0.0555,1.7502863142072165,1.0,3075.7932276691813,0.46499816999451976,1.3082402927867822,0.9779921508953958,0.28656502519670307,0.697027812189792
0.056,1.7497248372729841,1.0,3079.7809392537224,0.46799912446925396,1.307952588191348,0.9782499418876007,0.2865414431654653,0.69759312317044
0.0565,1.749163360338752,1.0,3083.7212391176067,0.4709832436177496,1.307665311134215,0.9785015804109994,0.2865178611342276,0.6981570673618838
0.057,1.7486018834045198,1.0,3087.61565656737,0.47395062052152775,1.3073784477263475,0.9787472643855877,0.28649427910298986,0.6987196743410111
0.0575,1.7480404064702875,1.0,3091.4657261748002,0.47690134826210934,1.3070919840787105,0.9789871837309703,0.2864706970717521,0.6992809735797226
0.058,1.7474789295360553,1.0,3095.2729876511366,0.47983551992101536,1.3068059063022688,0.9792215207538192,0.28644711504051434,0.6998409944452917
0.0585,1.7469174526018232,1.0,3099.038985726491,0.4827532285797668,1.3065202005079868,0.9794504505135795,0.2864235330092766,0.700399766200713
0.059000000000000004,1.7463559756675908,1.0,3102.765270033021,0.4856545673198848,1.3062348528068293,0.9796741411678084,0.28639995097803883,0.700957318005037
0.059500000000000004,1.7457944987333587,1.0,3106.453394992378,0.4885396292228903,1.3059498493097612,0.9798927542984364,0.2863763689468011,0.701513678913694
0.06,1.7452330217991265,1.0,3110.1049197078587,0.49140850737030417,1.3056651761277471,0.98010644522014,0.2863527869155633,0.7020688778788053
0.0605,1.7446715448648942,1.0,3113.7214078603674,0.49426129484364767,1.3053808193717518,0.9803153632719444,0.28632920488432556,0.702622943749482
0.061,1.744110067930662,1.0,3117.3044276088085,0.4970980847244416,1.3050967651527399,0.9805196520930852,0.2863056228530878,0.7031759052721107
0.0615,1.74354859099643,1.0,3120.851909518476,0.49991891010106587,1.3048130305407395,0.9807194469289724,0.28628204082185005,0.7037277309074306
0.062,1.7429871140621975,1.0,3124.3685714139388,0.5027239289317984,1.3045295749090637,0.9809148844265675,0.2862584587906123,0.7042785012937021
0.0625,1.7424256371279654,1.0,3127.8557435570733,0.5055132364340702,1.304246386491439,0.9811060928715095,0.28623487675937453,0.7048282407745596
0.063,1.7418641601937332,1.0,3131.3140724845402,0.5082869157523174,1.3039634593543468,0.9812931952197975,0.2862112947281368,0.7053769623001862
0.0635,1.7413026832595009,1.0,3134.7442067386387,0.5110450500309766,1.303680787564268,0.9814763099321994,0.286187712696899,0.7059246787766134
0.064,1.7407412063252687,1.0,3138.146796833678,0.513787722414484,1.3033983651876841,0.9816555511716787,0.28616413066566126,0.7064714030658185
0.0645,1.7401797293910364,1.0,3141.5224952225626,0.5165150160472761,1.303116186291076,0.9818310289907608,0.2861405486344235,0.7070171479858216
0.065,1.7396182524568042,1.0,3144.871956264443,0.5192270140737895,1.3028342449409254,0.9820028495094127,0.28611696660318575,0.7075619263107769
0.0655,1.739056775522572,1.0,3148.1958361931775,0.5219237996384601,1.3025525352037128,0.982171115083989,0.286093384571948,0.7081057507710654
0.066,1.7384952985883397,1.0,3151.494793086195,0.5246054558857248,1.30227105114592,0.9823359244677465,0.28606980254071024,0.7086486340533823
0.0665,1.7379338216541076,1.0,3154.7694868347635,0.5272720659600196,1.3019897868340276,0.9824973729634114,0.2860462205094725,0.7091905888008246
0.067,1.7373723447198754,1.0,3158.0205791144476,0.5299237130057812,1.3017087363345172,0.9826555525682422,0.2860226384782348,0.7097316276129744
0.0675,1.736810867785643,1.0,3161.2487333565173,0.5325604801674458,1.3014278937138701,0.9828105521120087,0.285999056446997,0.7102717630459816
0.068,1.736249390851411,1.0,3164.4546147205633,0.5351824505894499,1.3011472530385673,0.9829624573882807,0.28597547441575927,0.7108110076126439
0.0685,1.7356879139171788,1.0,3167.638890067223,0.5377897074162299,1.3008668083750898,0.9831113512793941,0.2859518923845215,0.711349373782484
0.069,1.7351264369829464,1.0,3170.8022279321804,0.540382333792222,1.300586553789919,0.9832573138754412,0.28592831035328375,0.7118868739818243
0.0695,1.7345649600487143,1.0,3173.945298500628,0.5429604128618628,1.3003064833495361,0.9834004225876088,0.285904728322046,0.7124235205938609
0.07,1.7340034831144822,1.0,3177.0687735827228,0.5455240277695886,1.3000265911204225,0.9835407522561702,0.28588114629080824,0.7129593259587335
