Time [s],Phi [rad],STIM [ ],Fsee [N],Gamma [ ],Lcerel [ ],q [ ],Lmtc [m],fisomrel [ ]
0.0,1.8,1.0,17.968120016859427,2.7729227359341706e-05,1.379339638461877,0.005000203285370291,0.288653,0.5411397917462131
0.0005,1.79999375,1.0,18.283348496371644,0.005636782997123366,1.379301654241002,0.012989806511575306,0.2886527375,0.5412316807718094
0.001,1.799975,1.0,21.63814062506896,0.011214374410073417,1.378936284476727,0.03570101910862408,0.28865195,0.5421150902645824
0.0015,1.79994375,1.0,31.11697353750867,0.016760679946033214,1.3780421382161199,0.07072821126276752,0.2886506375,0.5442734111383423
0.002,1.7999,1.0,53.68591445180464,0.022275875093145246,1.3763614186548312,0.11486764117778855,0.2886488,0.548316589758045
0.0025,1.79984375,1.0,97.29344993798234,0.02776013435556041,1.3739267617030186,0.16473764077737652,0.28864643749999996,0.5541415079154781
0.003,1.7997750000000001,1.0,161.18569541642435,0.03321363126098965,1.37120583015202,0.21744835092871398,0.28864354999999997,0.5606066060623395
0.0035,1.79969375,1.0,237.9406579053574,0.038636538360425104,1.3685768100446738,0.2707798810131137,0.2886401375,0.5668084665092235
0.004,1.7996,1.0,321.74069807642525,0.044029027238888734,1.3661488386680847,0.3230774969346808,0.2886362,0.5724969003252963
0.0045000000000000005,1.7994937500000001,1.0,409.5515291692892,0.04939126852062638,1.363916153960648,0.3731879998278801,0.2886317375,0.5776946201737565
0.005,1.799375,1.0,499.70312440974186,0.05472343186022936,1.361852188832729,0.420391065479046,0.28862675,0.5824712800923564
0.0055,1.79924375,1.0,591.0827177799525,0.060025685989430574,1.3599331248984992,0.4643066543743625,0.2886212375,0.5868882193903107
0.006,1.7991000000000001,1.0,682.8108453512745,0.06529819866198411,1.3581410941379588,0.5048021482637424,0.2886152,0.5909915710767402
0.006500000000000001,1.79894375,1.0,774.1560916916494,0.07054113647108684,1.3564625624399311,0.5419126555709952,0.2886086375,0.5948164591159382
0.007,1.798775,1.0,864.5821414220924,0.07575466609359986,1.3548856087240269,0.5757785057316456,0.28860155,0.5983935099508193
0.0075,1.79859375,1.0,953.5415862065112,0.08093895171996573,1.3534021902990132,0.6066023698130716,0.2885939375,0.6017439154714925
0.008,1.7984,1.0,1040.6376420815416,0.08609415734031522,1.3520045361470263,0.6346161783652849,0.2885858,0.6048877759308573
0.0085,1.79819375,1.0,1125.5931722395144,0.09122044649127255,1.3506852929114495,0.6600608014334476,0.2885771375,0.6078438307895756
0.009000000000000001,1.797975,1.0,1208.15361449357,0.0963179812379317,1.3494385723590496,0.6831737292062002,0.28856795,0.6106271815933331
0.0095,1.79774375,1.0,1288.1216095674583,0.10138692233974997,1.3482590883122159,0.7041808357570358,0.2885582375,0.6132512991324752
0.01,1.7975,1.0,1365.4079958106638,0.10642743147903962,1.3471412886014542,0.723291789753698,0.288548,0.6157299928192662
0.0105,1.79724375,1.0,1439.9104651215457,0.11143966752764811,1.346080805493123,0.7406990288965289,0.2885372375,0.6180742221595381
0.011,1.796975,1.0,1511.5591936125427,0.1164237884064239,1.3450736589503403,0.7565769756482436,0.28852595000000003,0.6202939091155111
0.0115,1.79669375,1.0,1580.3398383811418,0.12137995203621543,1.3441158689362236,0.7710824209193768,0.2885141375,0.6223988161551907
0.012,1.7964,1.0,1646.2707629431147,0.12630831560453903,1.3432036631069353,0.7843557093372948,0.28850180000000003,0.6243981046874403
0.0125,1.79609375,1.0,1709.3827274853054,0.13120903539400972,1.34233363699188,0.796522128762258,0.2884889375,0.6263000031374739
0.013000000000000001,1.7957750000000001,1.0,1769.6985218951447,0.13608226579448518,1.3415029056613517,0.8076933641191888,0.28847555,0.6281114968904782
0.0135,1.79544375,1.0,1827.2684296950326,0.1409281609625974,1.3407086297831037,0.8179686900769242,0.2884616375,0.6298393800743622
0.014,1.7951000000000001,1.0,1882.1624799093968,0.14574687432362401,1.339948066629353,0.8274363335119687,0.2884472,0.6314901530451689
0.0145,1.79474375,1.0,1934.4624986376316,0.15053855947148795,1.33921862166874,0.8361747345881503,0.2884322375,0.6330699193659446
0.015,1.794375,1.0,1984.22493739489,0.1553033668422984,1.3385182108579445,0.8442537899530781,0.28841675,0.6345836126196945
0.0155,1.79399375,1.0,2031.5244446464549,0.16004144687216457,1.3378447501536463,0.8517356771324801,0.2884007375,0.6360361122245545
0.016,1.7936,1.0,2076.4485891441172,0.1647529496560086,1.3371961943052542,0.8586757781317572,0.2883842,0.6374321637310373
0.0165,1.7931937500000001,1.0,2119.086439708172,0.16943802454583415,1.3365706376637678,0.86512351450967,0.2883671375,0.638776166653714
0.017,1.792775,1.0,2159.536037506891,0.1740968213219591,1.335966217569026,0.8711230243335658,0.28834955,0.6400723872843175
0.0175,1.7923437500000001,1.0,2197.8637770079217,0.1787294858952099,1.3353815120613994,0.8767138930885608,0.2883314375,0.6413241115032187
0.018000000000000002,1.7919,1.0,2234.1454122743226,0.18333616417641282,1.3348150991812593,0.8819315661113682,0.2883128,0.6425345961742459
0.0185,1.79144375,1.0,2268.465279862896,0.18791700207639425,1.3342655569689765,0.8868078321353207,0.2882936375,0.6437070708680481
0.019,1.790975,1.0,2300.907823416508,0.1924721445426453,1.3337315401223606,0.8913712652927196,0.28827395,0.6448445762996085
0.0195,1.79049375,1.0,2331.5628873323076,0.1970017370512864,1.3332117186450274,0.8956475793242887,0.2882537375,0.645950097441413
0.02,1.79,1.0,2360.5101780183877,0.20150592340208273,1.332704923279128,0.8996599845144654,0.288233,0.6470262564599158
0.0205,1.78949375,1.0,2387.81359868878,0.20598484467557654,1.3322101904514694,0.9034294763784868,0.2882117375,0.6480752211741022
0.021,1.788975,1.0,2413.541489926936,0.21043864195231013,1.331726556588859,0.9069750359885007,0.28818995000000003,0.6490991443038857
0.021500000000000002,1.78844375,1.0,2437.7662616734733,0.21486745631282583,1.3312530581181041,0.9103138508768172,0.2881676375,0.6501001641817727
0.022,1.7879,1.0,2460.5594797775866,0.21927142796278468,1.330788775178775,0.9134615177044325,0.2881448,0.6510803131879013
0.0225,1.78734375,1.0,2481.991439302849,0.22365069695155873,1.3303328316289167,0.91643221247707,0.28812143749999997,0.6520415189669062
0.023,1.786775,1.0,2502.1348549277445,0.2280054037868937,1.3298843563395968,0.9192388328947149,0.28809755,0.6529856869974806
0.0235,1.78619375,1.0,2521.0420575633552,0.23233568445676697,1.3294426962847337,0.9218931686399328,0.28807313749999996,0.6539142533949132
0.024,1.7856,1.0,2538.767485455329,0.2366416749491559,1.3290071984382446,0.9244059763649273,0.2880482,0.6548286459688061
0.0245,1.78499375,1.0,2555.367508502123,0.24092351125203793,1.3285772097740476,0.9267870844326225,0.2880227375,0.6557302844933085
0.025,1.784375,1.0,2570.900262028703,0.24518132935339043,1.3281520772660602,0.9290454857692887,0.28799675,0.6566205809501584
0.025500000000000002,1.78374375,1.0,2585.416870331135,0.2494152631930514,1.3277312283913882,0.9311894328295506,0.2879702375,0.6575007714830093
0.026000000000000002,1.7831000000000001,1.0,2598.9746567940515,0.25362544911396434,1.3273140456531105,0.9332264908619015,0.2879432,0.6583721795860762
0.0265,1.78244375,1.0,2611.6267166958123,0.2578120216899789,1.3268999628827158,0.9351636174668837,0.2879156375,0.6592360148829051
0.027,1.781775,1.0,2623.4117552057096,0.2619751114090465,1.3264885577370504,0.9370072333032433,0.28788755,0.6600931813353976
0.0275,1.7810937500000001,1.0,2634.369363939978,0.26611484875911845,1.3260794078729605,0.9387632516560065,0.2878589375,0.6609445783202151
0.028,1.7804,1.0,2644.5399450049526,0.270231364228146,1.325672090947292,0.9404371252388396,0.2878298,0.6617911006952127
0.0285,1.77969375,1.0,2653.9646389949125,0.2743247883040806,1.3252661846168918,0.9420338881126215,0.2878001375,0.6626336388544963
0.029,1.778975,1.0,2662.68525694461,0.2783952514748735,1.3248612665386057,0.9435581932829329,0.28776995,0.6634730787721077
0.029500000000000002,1.7782437500000001,1.0,2670.7357453461727,0.2824428802100917,1.324456992208889,0.9450143556675785,0.2877392375,0.6643101409654368
0.03,1.7775,1.0,2678.1618424988433,0.28646780796593063,1.3240529134987342,0.9464063610766634,0.287708,0.6651457565464984
0.0305,1.77674375,1.0,2684.994604848126,0.29047016142180987,1.3236487215066772,0.947737921870367,0.2876762375,0.6659805646272108
0.031,1.775975,1.0,2691.2613912008746,0.29445006525379747,1.3232441446852117,0.9490124885010489,0.28764395,0.6668151241285905
0.0315,1.7751937500000001,1.0,2696.9898891462926,0.2984076441379615,1.3228389114868313,0.950233267443758,0.2876111375,0.6676499911670852
0.032,1.7744,1.0,2702.208084203089,0.30234302275037,1.3224327503640292,0.9514032414631289,0.2875778,0.6684857190455601
0.0325,1.77359375,1.0,2706.944230601325,0.3062563257670911,1.322025389769299,0.9525251879618563,0.2875439375,0.669322858239576
0.033,1.772775,1.0,2711.2268236991413,0.31014767786419284,1.3216165581551345,0.9536016956129265,0.28750955,0.6701619563789701
0.0335,1.7719437500000002,1.0,2715.0778914997422,0.3140171992015603,1.3212060448768197,0.9546351851877711,0.2874746375,0.6710034334648931
0.034,1.7711000000000001,1.0,2718.5245494568776,0.31786501478483314,1.3207935945370535,0.9556279133953632,0.2874392,0.6718477988010094
0.0345,1.7702437500000001,1.0,2721.599155713487,0.32169125353683303,1.3203789055348383,0.9565819852959208,0.2874032375,0.6726956533427908
0.035,1.7693750000000001,1.0,2724.318538093469,0.32549603343837374,1.3199618189947098,0.9574993826702937,0.28736675,0.6735473035254993
0.035500000000000004,1.76849375,1.0,2726.6996317877442,0.3292794724702691,1.319542176041203,0.9583819608621146,0.2873297375,0.674403053988689
0.036000000000000004,1.7676,1.0,2728.759468193961,0.3330416886133328,1.3191198177988537,0.95923145829487,0.2872922,0.6752632075511047
0.0365,1.76669375,1.0,2730.5151643167665,0.33678279984837856,1.3186945853921972,0.9600495051688243,0.2872541375,0.6761280651839782
0.037,1.765775,1.0,2731.9839127266036,0.3405029241562203,1.3182663199457687,0.9608376314168832,0.28721555,0.6769979259827091
0.0375,1.76484375,1.0,2733.1829720788946,0.34420217951767174,1.317834862584104,0.9615972739901086,0.2871764375,0.6778730871369377
0.038,1.7639,1.0,2734.1296581926103,0.34788068391354665,1.3174000544317384,0.9623297835361575,0.28713679999999997,0.67875384389901
0.0385,1.76294375,1.0,2734.841335688608,0.35153855532465883,1.3169617366132074,0.9630364305273457,0.28709663750000003,0.6796404895508283
0.039,1.761975,1.0,2735.326248772413,0.3551759051369925,1.316519833438041,0.9637184173108442,0.28705595,0.6805331474501108
0.0395,1.7609937500000001,1.0,2735.604564678702,0.3587928547984386,1.3160741612502724,0.9643768685510951,0.2870147375,0.6814321574934209
0.04,1.76,1.0,2735.6935337298446,0.3623895215653831,1.3156245631420187,0.9650128460200879,0.286973,0.6823378033845977
0.0405,1.7589937500000001,1.0,2735.6025621249582,0.36596601647282134,1.3151709536259597,0.9656273564509942,0.2869307375,0.6832502231840025
0.041,1.757975,1.0,2735.3410738258717,0.36952245055574856,1.314713247214776,0.966221350116323,0.28688795,0.6841695536592196
0.0415,1.75694375,1.0,2734.9185075420423,0.3730589348491602,1.3142513584211477,0.9667957245788923,0.2868446375,0.6850959302629571
0.042,1.7559,1.0,2734.3443138768207,0.37657558038805145,1.313785201757755,0.9673513281561936,0.28680079999999997,0.6860294871104753
0.0425,1.75484375,1.0,2733.627952636035,0.3800724982074178,1.3133146917372784,0.9678889631227721,0.2867564375,0.6869703569565504
0.043000000000000003,1.753775,1.0,2732.77889029822,0.3835497993422544,1.312839742872398,0.9684093886729063,0.28671155,0.6879186711719769
0.043500000000000004,1.75269375,1.0,2731.8065976477565,0.3870075948275567,1.3123602696757941,0.9689133236637708,0.28666613750000003,0.6888745597195955
0.044,1.7516,1.0,2730.7205475687038,0.39044599569831995,1.311876186660147,0.9694014491573919,0.2866202,0.6898381511298635
0.0445,1.75049375,1.0,2729.5241990820027,0.39386510481101933,1.3113874630021263,0.9698744138204183,0.2865737375,0.6908094639193223
0.045,1.7493750000000001,1.0,2728.232111558756,0.39726504018309755,1.3108939669921311,0.9703328273924695,0.28652675,0.6917887158415041
0.0455,1.74824375,1.0,2726.8513500481854,0.4006459090275402,1.3103956350004382,0.9707772721289992,0.2864792375,0.692775987795519
0.046,1.7471,1.0,2725.387018652229,0.4040078158424414,1.3098924212123626,0.9712083018661886,0.2864312,0.6937713242191953
0.0465,1.7459437500000001,1.0,2723.8442200970753,0.40735086512589525,1.3093842798132194,0.9716264427874409,0.28638263750000004,0.6947747685091059
0.047,1.744775,1.0,2722.2280549808274,0.41067516137599597,1.3088711649883238,0.9720321950633252,0.28633355,0.6957863630062362
0.0475,1.74359375,1.0,2720.5436210685525,0.41398080909083773,1.3083530309229905,0.9724260343792999,0.28628393750000003,0.6968061489815219
0.048,1.7424,1.0,2718.7960126322314,0.4172679127685147,1.3078298318025348,0.9728084133598746,0.2862338,0.6978341666212473
0.0485,1.74119375,1.0,2716.990319839211,0.42053657690712104,1.3073015218122719,0.9731797628971355,0.2861831375,0.6988704550123144
0.049,1.739975,1.0,2715.1316281853638,0.4237869060047509,1.3067680551375167,0.973540493390876,0.28613195,0.6999150521273774
0.0495,1.73874375,1.0,2713.22500059214,0.4270190044188635,1.3062293861220726,0.9738909959010567,0.2860802375,0.7009679945003142
0.05,1.7375,1.0,2711.274001313436,0.4302329540049984,1.3056854827263493,0.974231641535171,0.286028,0.7020292909769095
0.0505,1.73624375,1.0,2709.2874743636976,0.4334288890381231,1.3051362647056926,0.9745627871037312,0.2859752375,0.7030990432444437
0.051000000000000004,1.734975,1.0,2707.2677977351495,0.4366069065796566,1.3045817107200846,0.9748847726610496,0.28592195,0.704177236909524
0.051500000000000004,1.73369375,1.0,2705.217346598014,0.4397671036910179,1.3040217994295076,0.975197922847036,0.2858681375,0.7052638567335595
0.052000000000000005,1.7324,1.0,2703.1384931595285,0.4429095774336259,1.303456509493944,0.9755025477184374,0.2858138,0.7063588866254842
0.0525,1.73109375,1.0,2701.033606532796,0.4460344248688996,1.3028858195733763,0.9757989435282427,0.28575893750000003,0.7074623096344519
0.053,1.729775,1.0,2698.905052615539,0.44914174305825805,1.3023097083277868,0.9760873934569012,0.28570355000000003,0.7085741079425014
0.0535,1.72844375,1.0,2696.7551939794043,0.4522316290631202,1.3017281544171575,0.9763681682987331,0.2856476375,0.7096942628571937
0.054,1.7271,1.0,2694.5863897688805,0.45530417994490496,1.301141136501471,0.9766415271066263,0.2855912,0.7108227548042171
0.0545,1.7257437500000001,1.0,2692.4009956107952,0.45835949276503135,1.3005486332407095,0.9769077177978922,0.2855342375,0.7119595633199666
0.055,1.724375,1.0,2690.2013635332287,0.4613976645849184,1.2999506232948554,0.9771669777239266,0.28547675,0.7131046670440935
0.0555,1.72299375,1.0,2687.9898418954667,0.46441879246598494,1.299347085323891,0.9774195342061195,0.2854187375,0.7142580437120252
0.056,1.7216,1.0,2685.7687753270443,0.46742297346965006,1.2987379979877987,0.9776656050402793,0.2853602,0.7154196701474553
0.0565,1.72019375,1.0,2683.5405046777273,0.4704103046573327,1.2981233399465606,0.9779053989716646,0.28530113749999997,0.716589522254807
0.057,1.718775,1.0,2681.3046235281586,0.47338086472037205,1.2975031150201854,0.9781391159347192,0.28524155,0.7177675272745099
0.0575,1.71734375,1.0,2679.061017693867,0.4763347373709832,1.29687732435422,0.9783669480264969,0.2851814375,0.7189536169779314
0.058,1.7159,1.0,2676.81806741426,0.479272063503769,1.2962458911292616,0.9785890801733717,0.2851208,0.7201478698629773
0.0585,1.71444375,1.0,2674.5763912403727,0.48219293090372395,1.2956088096687512,0.978805689183669,0.2850596375,0.7213502284637245
0.059000000000000004,1.7129750000000001,1.0,2672.336606687017,0.4850974273558427,1.29496607429613,0.9790169448322348,0.28499795,0.7225606346120215
0.059500000000000004,1.71149375,1.0,2670.0993302339816,0.4879856406451199,1.294317679334839,0.979223010193489,0.2849357375,0.7237790294354429
0.06,1.71,1.0,2667.8651773270967,0.49085765855655006,1.293663619108319,0.9794240419561877,0.284873,0.7250053533552427
0.0605,1.7084937500000001,1.0,2665.634762380735,0.4937135688751279,1.2930038879400112,0.9796201907210341,0.2848097375,0.7262395460843029
0.061,1.7069750000000001,1.0,2663.408698780374,0.49655345938584794,1.2923384801533564,0.9798116012822029,0.28474595,0.7274815466250818
0.0615,1.7054437500000001,1.0,2661.1875988863594,0.4993774178737048,1.2916673900717959,0.979998412893753,0.2846816375,0.7287312932675603
0.062,1.7039,1.0,2658.972074038481,0.5021855321236931,1.2909906120187702,0.9801807595218575,0.2846168,0.729988723587186
0.0625,1.70234375,1.0,2656.7627345603873,0.5049778899208075,1.2903081403177206,0.9803587700837015,0.2845514375,0.7312537744428147
0.063,1.7007750000000001,1.0,2654.5601897658507,0.5077545790500425,1.2896199692920882,0.9805325686738483,0.28448555,0.7325263819746488
0.0635,1.69919375,1.0,2652.365047965225,0.5105156872963929,1.2889260932653137,0.9807022747788178,0.28441913750000003,0.7338064816021788
0.064,1.6976,1.0,2650.1779164721356,0.513261302444853,1.2882265065608383,0.9808680034805777,0.2843522,0.7350940080221144
0.0645,1.69599375,1.0,2647.9994016118853,0.5159915122804176,1.287521203502103,0.9810298656495905,0.2842847375,0.7363888952063209
0.065,1.694375,1.0,2645.8301087299274,0.5187064045880814,1.2868101784125487,0.9811879681280294,0.28421675,0.7376910763997512
0.0655,1.69274375,1.0,2643.6706422009242,0.5214060671528388,1.2860934256156165,0.981342413903729,0.2841482375,0.7390004841183729
0.066,1.6911,1.0,2641.5216054390717,0.5240905877596845,1.285370939434747,0.9814933022754031,0.2840792,0.7403170501470981
0.0665,1.6894437500000001,1.0,2639.3836009088436,0.5267600541936132,1.2846427141933818,0.9816407290096257,0.2840096375,0.7416407055377064
0.067,1.687775,1.0,2637.255663202488,0.5294145373378806,1.283908758704742,0.9817847860549584,0.28393955,0.7429713543709586
0.0675,1.68609375,1.0,2635.13637659604,0.532054107761628,1.2831690859626017,0.9819255623361214,0.2838689375,0.7443088927139818
0.068,1.6844000000000001,1.0,2633.0299137813727,0.5346788930257166,1.2824236572632022,0.9820631449716267,0.2837978,0.745653309368869
0.0685,1.68269375,1.0,2630.9361570209703,0.537288971488137,1.2816724735636107,0.9821976167082036,0.2837261375,0.7470045205247354
0.069,1.680975,1.0,2628.854988822662,0.53988442150688,1.2809155358208943,0.9823290574587846,0.28365395,0.7483624417552928
0.0695,1.67924375,1.0,2626.786291937109,0.5424653214399361,1.2801528449921198,0.9824575444175115,0.28358123749999997,0.7497269880192006
0.07,1.6775,1.0,2624.7299493555693,0.5450317496452961,1.2793844020343546,0.9825831521693095,0.283508,0.751098073660415
0.07050000000000001,1.67574375,1.0,2622.6858443076153,0.5475837844809505,1.2786102079046655,0.9827059527943147,0.2834342375,0.752475612408543
0.07100000000000001,1.673975,1.0,2620.6538602589076,0.5501215043048899,1.2778302635601198,0.9828260159674358,0.28335995,0.7538595173791913
0.07150000000000001,1.67219375,1.0,2618.6338809088606,0.5526449874751052,1.2770445699577841,0.9829434090533039,0.2832851375,0.7552497010743191
0.07200000000000001,1.6704,1.0,2616.625790188582,0.5551543123495868,1.2762531280547262,0.9830581971968538,0.2832098,0.7566460753825862
0.0725,1.66859375,1.0,2614.62947225845,0.5576495572863253,1.2754559388080127,0.9831704434097635,0.2831339375,0.7580485515797079
0.073,1.6667750000000001,1.0,2612.6448115062885,0.5601308006433116,1.2746530031747105,0.9832802086529713,0.28305755,0.7594570403288025
0.0735,1.66494375,1.0,2610.671692544694,0.5625981207785362,1.2738443221118871,0.9833875519154668,0.2829806375,0.760871451680743
0.074,1.6631,1.0,2608.7100002093493,0.5650515960499897,1.2730298965766096,0.9834925302895522,0.2829032,0.7622916950745086
0.0745,1.6612437500000001,1.0,2606.759619556712,0.5674913048156628,1.2722097275259445,0.9835951990427506,0.2828252375,0.7637176793375352
0.075,1.659375,1.0,2604.8204358620137,0.5699173254335461,1.2713838159169595,0.9836956116865306,0.28274675,0.7651493126860646
0.0755,1.65749375,1.0,2602.8923346170864,0.5723297362616304,1.270552162706721,0.9837938200420091,0.2826677375,0.7665865027254972
