Time [s],Phi [rad],STIM [ ],Fsee [N],Gamma [ ],Lcerel [ ],q [ ],Lmtc [m],fisomrel [ ]
0.0,1.8,1.0,17.96681048308472,1.159194972343207e-05,1.3793397851722005,0.005000035771145176,0.288653,0.5411394368160358
0.0005,1.79999375,1.0,18.27671081316949,0.005620736236847936,1.379302391492142,0.012944935387904494,0.2886527375,0.5412298973480287
0.001,1.799975,1.0,21.61953534303762,0.011198417659435743,1.3789381842730908,0.035616876555318026,0.28865195,0.5421104990427714
0.0015,1.79994375,1.0,31.072818527193338,0.01674481270014327,1.378045898519122,0.0706130681813763,0.2886506375,0.544264345066549
0.002,1.7999,1.0,53.59072457994255,0.022260096849972308,1.376367590863235,0.11473129484881822,0.2886488,0.5483017747060097
0.0025,1.79984375,1.0,97.13331674073426,0.02774444461584626,1.373934474390973,0.16458931529955106,0.28864643749999996,0.5541231149934529
0.003,1.7997750000000001,1.0,160.97722054258998,0.03319802952831164,1.3712136305784395,0.21729533181869007,0.28864354999999997,0.5605881392626718
0.0035,1.79969375,1.0,237.70505103045735,0.038621024141141345,1.368584065230768,0.2706276851376076,0.2886401375,0.5667914121746206
0.004,1.7996,1.0,321.49002061940797,0.04401360004211392,1.3661554766226598,0.3229301282161146,0.2886362,0.5724813996786762
0.0045000000000000005,1.7994937500000001,1.0,409.29194858025187,0.04937592785819887,1.363922246160586,0.3730481070319172,0.2886317375,0.5776804807061029
0.005,1.799375,1.0,499.43828195984025,0.054708177246651835,1.3618578158273198,0.42026018424740313,0.28862675,0.5824582944026834
0.0055,1.79924375,1.0,590.8154916207815,0.060010516942405064,1.359938345148606,0.4641854786071539,0.2886212375,0.5868762362617442
0.006,1.7991000000000001,1.0,682.5432787049238,0.06528311470141133,1.358145957221162,0.5046907886830002,0.2886152,0.5909804634124285
0.006500000000000001,1.79894375,1.0,773.891327763134,0.0705261371448192,1.3564670817179996,0.5418108223147076,0.2886086375,0.5948061851130517
0.007,1.798775,1.0,864.3189968320117,0.07573975087349087,1.3548898589472793,0.5756857193317969,0.28860155,0.5983838903583552
0.0075,1.79859375,1.0,953.2818324525422,0.08092412014033719,1.353406185227147,0.6065179899481418,0.2885939375,0.6017349114897814
0.008,1.7984,1.0,1040.3839960883613,0.08607940897388609,1.3520082702998244,0.6345395034715025,0.2885858,0.6048793929863705
0.0085,1.79819375,1.0,1125.3434715287156,0.0912057808622531,1.3506888275134552,0.6599911662193624,0.2885771375,0.6078359255651724
0.009000000000000001,1.797975,1.0,1207.909277110516,0.09630339785461708,1.3494419107575533,0.683110458541141,0.28856795,0.6106197417286677
0.0095,1.79774375,1.0,1287.8911193903461,0.10137242090049353,1.3482621381784767,0.7041232458496315,0.2885582375,0.6132445252275369
0.01,1.7975,1.0,1365.1769205236296,0.10641301099610102,1.3471442584071376,0.723239406370333,0.288548,0.6157234179048421
0.0105,1.79724375,1.0,1439.6881094392982,0.11142532805748023,1.3460835883100315,0.7406512647558733,0.2885372375,0.6180680800460863
0.011,1.796975,1.0,1511.34809323633,0.11640952962734055,1.345076237520602,0.7565333436849228,0.28852595000000003,0.6202882343706158
0.0115,1.79669375,1.0,1580.1350237780348,0.1213657732483914,1.3441183156722922,0.7710425248442186,0.2885141375,0.6223934464887265
0.012,1.7964,1.0,1646.067907819746,0.12629421608807634,1.3432060374097392,0.784319189285364,0.28850180000000003,0.6243929077981655
0.0125,1.79609375,1.0,1709.1846572391507,0.13119501481463286,1.342335912086927,0.7964886285856614,0.2884889375,0.6262950360191704
0.013000000000000001,1.7957750000000001,1.0,1769.5168036660802,0.13606832422021545,1.3415049570473119,0.807662528551992,0.28847555,0.628107029056485
0.0135,1.79544375,1.0,1827.1008996460616,0.14091429781930342,1.3407104909652283,0.8179402638965629,0.2884616375,0.6298353359254881
0.014,1.7951000000000001,1.0,1882.0011575924418,0.14573308912637603,1.339949832515011,0.8274101131157191,0.2884472,0.6314863245313009
0.0145,1.79474375,1.0,1934.2908087785513,0.15052485049556996,1.3392204754628647,0.8361505681865999,0.2884322375,0.6330659088863138
0.015,1.794375,1.0,1984.065033322943,0.15528973493627837,1.3385199156059835,0.8442314023008043,0.28841675,0.6345799322006308
0.0155,1.79399375,1.0,2031.3834301153772,0.16002789202894005,1.3378462359105472,0.8517148772590897,0.2884007375,0.6360329109728153
0.016,1.7936,1.0,2076.320123170658,0.16473947126443636,1.3371975331234804,0.8586564402016307,0.2883842,0.6374292846155591
0.0165,1.7931937500000001,1.0,2118.9633243769526,0.16942462209683,1.3365719077449683,0.8651055282578494,0.2883671375,0.6387734404238283
0.017,1.792775,1.0,2159.3980090745804,0.17408349237010323,1.3359676281000583,0.8711063271609126,0.28834955,0.6400693650153728
0.0175,1.7923437500000001,1.0,2197.7292311846027,0.17871623162847472,1.3353828749609853,0.8766983208183305,0.2883314375,0.6413211963740565
0.018000000000000002,1.7919,1.0,2234.0234392890566,0.18332298493140542,1.3348163246471871,0.8819169974453106,0.2883128,0.6425319794315989
0.0185,1.79144375,1.0,2268.3553069631034,0.18790389733835622,1.3342666534781018,0.8867941831819103,0.2882936375,0.6437047333308374
0.019,1.790975,1.0,2300.80705230818,0.19245911390878806,1.3337325377731672,0.8913584662685713,0.28827395,0.6448424529065099
0.0195,1.79049375,1.0,2331.4455970079944,0.1969887786488682,1.333212872181844,0.8956356210626704,0.2882537375,0.6459476460852237
0.02,1.79,1.0,2360.384743625458,0.20149303637483562,1.3327061493253438,0.8996487794877926,0.288233,0.647023654978004
0.0205,1.78949375,1.0,2387.7146323679353,0.20597203014649224,1.3322111522388904,0.903418889185813,0.2882117375,0.6480731834442244
0.021,1.7889767706806832,1.0,2413.5470938774256,0.21042590019208537,1.331727302081702,0.9069650287317793,0.2881900243685887,0.649097567135189
0.021500000000000002,1.7884584240269896,1.0,2438.3552969685943,0.21485478673986236,1.3312540200129972,0.9103044710574403,0.2881682538091336,0.6500981320957553
0.022,1.7879400773732963,1.0,2462.2464515193014,0.21925883001807053,1.330790727191994,0.9134528791367245,0.28814648324967845,0.6510761951651522
0.0225,1.787421730719603,1.0,2485.2658126699603,0.22363817015083373,1.3303368474580364,0.9164244787156628,0.28812471269022333,0.6520330587100958
0.023,1.7869033840659097,1.0,2507.4460862871897,0.2279929460092114,1.3298919401369926,0.9192322352553953,0.2881029421307682,0.6529697316092185
0.0235,1.786385037412216,1.0,2528.813594211442,0.23232329552549663,1.3294556378484028,0.921887972629426,0.2880811715713131,0.6538870621489223
0.024,1.7858666907585228,1.0,2549.397055035544,0.23662935493438536,1.3290275616331797,0.9244024739857777,0.28805940101185795,0.6547859173651918
0.0245,1.7853483441048295,1.0,2569.226303535735,0.24091126047057354,1.3286073325322363,0.9267855906276941,0.2880376304524028,0.6556671588203071
0.025,1.784829997451136,1.0,2588.3194957952355,0.24516914096090098,1.3281946903863553,0.9290463519597645,0.2880158598929477,0.6565313941396824
0.025500000000000002,1.7843116507974426,1.0,2606.725872227698,0.24940314282918422,1.3277890933891399,0.9311929915997647,0.2879940893334926,0.6573798158645592
0.026000000000000002,1.7837933041437493,1.0,2624.4733661768855,0.2536134003581204,1.3273902081065012,0.9332330915134673,0.28797231877403745,0.6582131748596359
0.0265,1.783274957490056,1.0,2641.5836085141473,0.25780004381983235,1.326997766701898,0.9351736250930266,0.2879505482145823,0.6590320809055201
0.027,1.7827566108363624,1.0,2658.078890247862,0.26196320348644275,1.3266115013387894,0.9370210063049152,0.2879287776551272,0.6598371402845089
0.0275,1.782238264182669,1.0,2673.9821250531104,0.26610300963007427,1.326231144180634,0.9387811420284965,0.2879070070956721,0.6606289558883749
0.028,1.7817199175289757,1.0,2689.316813391229,0.2702195925228497,1.3258564273908915,0.9404594788634691,0.287885236536217,0.6614081273215711
0.0285,1.7812015708752824,1.0,2704.1070082201004,0.2743130824368918,1.3254870831330203,0.9420610450506597,0.2878634659767619,0.6621752509998671
0.029,1.7806832242215889,1.0,2718.3772822954015,0.2783836096443232,1.3251228435704798,0.9435904880694796,0.28784169541730675,0.6629309202444047
0.029500000000000002,1.7801648775678955,1.0,2732.1526970614786,0.2824313044172666,1.3247634408667286,0.9450521084050529,0.28781992485785163,0.6636757253711827
0.03,1.7796465309142022,1.0,2745.453346670434,0.2864562927706026,1.3244086563661814,0.9464498949933149,0.2877981542983965,0.6644101520238801
0.0305,1.779128184260509,1.0,2758.30113997246,0.29045870379191085,1.3240582584450622,0.9477875464510338,0.2877763837389414,0.6651347102473
0.031,1.7786098376068153,1.0,2770.7228042653664,0.2944386704871715,1.3237119753605517,0.9490684925871593,0.28775461317948625,0.6658499904597244
0.0315,1.778091490953122,1.0,2782.7331156079,0.29839631573044734,1.323369646451854,0.9502959314825496,0.2877328426200311,0.6665563512551114
0.032,1.7775731442994287,1.0,2794.347111151816,0.30233176239580145,1.3230311110581734,0.9514728381936828,0.287711072060576,0.6672541495169708
0.0325,1.7770547976457354,1.0,2805.580075342851,0.30624513335729686,1.322696208518714,0.952601983048499,0.2876893015011209,0.667943740458057
0.033,1.7765364509920418,1.0,2816.447526693981,0.3101365514889965,1.3223647781726797,0.9536859482308948,0.28766753094166575,0.6686254776584152
0.0335,1.7760181043383485,1.0,2826.9652051311064,0.31400613966496344,1.3220366593592754,0.954727142832249,0.2876457603822106,0.6692997131017795
0.034,1.7754997576846552,1.0,2837.1490599107537,0.31785402075926056,1.3217116914177045,0.9557278165280245,0.2876239898227555,0.6699667972103307
0.0345,1.7749814110309616,1.0,2847.0152381104726,0.32168031764595095,1.3213897136871717,0.956690072019621,0.2876022192633004,0.670627078877799
0.035,1.7744630643772683,1.0,2856.580073691013,0.3254851531990976,1.3210705655068808,0.9576158763659882,0.28758044870384525,0.6712809055009303
0.035500000000000004,1.773944717723575,1.0,2865.849283295684,0.3292686375864678,1.3207541819654445,0.9585070783310239,0.2875586781443902,0.6719284271418321
0.036000000000000004,1.7734263710698817,1.0,2874.848213298031,0.3330309078561297,1.320440325170327,0.9593653988146932,0.287536907584935,0.6725701466987728
0.0365,1.772908024416188,1.0,2883.5865416062384,0.3367720802298837,1.3201288976802745,0.9601924611812669,0.2875151370254799,0.6732062782844781
0.037,1.7723896777624948,1.0,2892.0734494566145,0.3404922701552649,1.3198198073860907,0.9609897894808519,0.28749336646602475,0.6738370242459306
0.0375,1.7718713311088015,1.0,2900.3182166575543,0.3441915930798083,1.319512962178579,0.9617588153097925,0.2874715959065697,0.674462586096524
0.038,1.7713529844551081,1.0,2908.33021690932,0.347870164451049,1.3192082699485432,0.9625008844481066,0.28744982534711455,0.6750831645295216
0.0385,1.7708346378014146,1.0,2916.118913314224,0.35152809971652205,1.3189056385867863,0.9632172629502552,0.2874280547876594,0.6756989594309759
0.039,1.7703162911477213,1.0,2923.693854073233,0.35516551432376253,1.3186049759841123,0.9639091427397579,0.2874062842282043,0.6763101698921021
0.0395,1.769797944494028,1.0,2931.064668371617,0.35878252372030545,1.3183061900313242,0.9645776467530023,0.2873845136687492,0.6769169942211177
0.04,1.7692795978403346,1.0,2938.241062452233,0.3623792433536859,1.3180091886192258,0.9652238336730355,0.28736274310929405,0.6775196299545334
0.0405,1.768761251186641,1.0,2945.2328158771884,0.36595578867143896,1.3177138796386205,0.9658487022900482,0.2873409725498389,0.6781182738679087
0.041,1.7682429045329477,1.0,2952.045765803246,0.3695122663489067,1.3174202060478652,0.9664531970024743,0.2873192019903838,0.6787130509965905
0.0415,1.7677245578792544,1.0,2958.68893454263,0.3730487930150112,1.317128083419529,0.9670382093851927,0.2872974314309287,0.6793041412839806
0.042,1.767206211225561,1.0,2965.174422989938,0.3765654923340659,1.3168374010017707,0.9676045811911738,0.28727566087147355,0.6798917771889131
0.0425,1.7666878645718676,1.0,2971.507357287685,0.3800624718778696,1.3165481094149252,0.9681531109879413,0.2872538903120184,0.6804760664089176
0.043000000000000003,1.7661695179181742,1.0,2977.6929009281307,0.3835398392182212,1.316260159279328,0.9686845546154064,0.2872321197525633,0.6810571162392032
0.043500000000000004,1.765651171264481,1.0,2983.736253258185,0.3869977019269195,1.3159735012153135,0.9691996279028728,0.28721034919310817,0.6816350335769652
0.044,1.7651328246107876,1.0,2989.642648037511,0.39043616757576327,1.3156880858432172,0.9696990091870419,0.2871885786336531,0.6822099249255279
0.0445,1.764614477957094,1.0,2995.417352050627,0.3938553437365514,1.315403863783374,0.9701833416474381,0.2871668080741979,0.6827818963983381
0.045,1.7640961313034007,1.0,3001.0656637741995,0.39725533798108265,1.3151207856561193,0.9706532354741672,0.28714503751474285,0.6833510537228
0.0455,1.7635777846497074,1.0,3006.592912096822,0.4006362578811559,1.3148388020817878,0.9711092698815752,0.2871232669552877,0.6839175022439568
0.046,1.7630594379960138,1.0,3012.004455094193,0.4039982110085699,1.3145578636807147,0.9715519949801559,0.2871014963958326,0.6844813469280131
0.0465,1.7625410913423205,1.0,3017.3056788575295,0.40734130493512355,1.314277921073235,0.9719819335179598,0.2870797258363775,0.6850426923657065
0.047,1.7620227446886272,1.0,3022.5019963763575,0.41066564723261567,1.3139989248796837,0.9723995825017686,0.28705795527692235,0.6856016427755189
0.0475,1.7615043980349339,1.0,3027.597593796279,0.4139713401174221,1.3137208365317008,0.9728054147857729,0.2870361847174672,0.6861582803757968
0.048,1.7609860513812403,1.0,3032.593358896642,0.4172584747960009,1.313443646082578,0.9731998810318606,0.2870144141580121,0.686712629880292
0.0485,1.760467704727547,1.0,3037.4998854025,0.4205271857708239,1.3131672600338848,0.9735834099784233,0.286992643598557,0.6872648827897614
0.049,1.7599493580738537,1.0,3042.3197874367634,0.4237775721276372,1.3128916539306756,0.9739564103944012,0.28697087303910185,0.6878150921572905
0.0495,1.7594310114201603,1.0,3047.0556922579053,0.4270097329521874,1.3126168033180048,0.9743192719098248,0.2869491024796467,0.6883633108521426
0.05,1.7589126647664668,1.0,3051.7102398439483,0.43022376733022066,1.3123426837409267,0.9746723660849267,0.2869273319201916,0.688909591560955
0.0505,1.7583943181127735,1.0,3056.286082489428,0.43341977434748336,1.3120692707444954,0.9750160474102406,0.28690556136073647,0.6894539867888994
0.051000000000000004,1.7578759714590801,1.0,3060.785884415445,0.4365978530897219,1.3117965398737654,0.9753506542427206,0.28688379080128135,0.6899965488608018
0.051500000000000004,1.7573576248053868,1.0,3065.2123213933605,0.43975810264268245,1.3115244666737913,0.9756765096825042,0.2868620202418263,0.6905373299222255
0.052000000000000005,1.7568392781516933,1.0,3069.568080381468,0.44290062209211145,1.311253026689627,0.9759939223945769,0.2868402496823711,0.6910763819405178
0.0525,1.756320931498,1.0,3073.855859175382,0.4460255105237552,1.3109821954663272,0.9763031873792547,0.286818479122916,0.6916137567058134
0.053,1.7558025848443066,1.0,3078.0783660706393,0.4491328670233601,1.3107119485489458,0.9766045866950847,0.28679670856346084,0.6921495058320066
0.0535,1.7552842381906133,1.0,3082.238319540127,0.4522227906766724,1.3104422614825377,0.9768983901374951,0.2867749380040058,0.6926836807576775
0.054,1.7547658915369198,1.0,3086.3384479229603,0.4552953805694385,1.3101731098121567,0.977184855876255,0.2867531674445506,0.6932163327469891
0.0545,1.7542475448832264,1.0,3090.3814891286393,0.4583507357874047,1.3099044690828574,0.9774642310545743,0.2867313968850955,0.6937475128905366
0.055,1.753729198229533,1.0,3094.3701903521646,0.46138895541631736,1.3096363148396941,0.9777367523524556,0.2867096263256404,0.6942772721061665
0.0555,1.7532108515758396,1.0,3098.303376702878,0.4644101028199778,1.3093686561659066,0.9780026451435104,0.2866878557661853,0.6948055949684346
0.056,1.7526925049221462,1.0,3102.1859051284014,0.4674143043481638,1.3091014507069956,0.9782621283077223,0.28666608520673015,0.6953325675090267
0.0565,1.752174158268453,1.0,3106.0215834846667,0.4704016747452432,1.308834665166046,0.9785154110987265,0.286644314647275,0.6958582576268375
0.057,1.7516558116147596,1.0,3109.8115927790145,0.4733723035782901,1.308568288708341,0.9787626932152271,0.2866225440878199,0.6963826887870088
0.0575,1.751137464961066,1.0,3113.5571182538797,0.4763262804143784,1.3083023104991645,0.9790041662789077,0.28660077352836477,0.696905884377796
0.058,1.7506191183073727,1.0,3117.2593492901387,0.47926369482058223,1.3080367197037996,0.9792400142257387,0.28657900296890965,0.6974278677108507
0.0585,1.7501007716536794,1.0,3120.919479312288,0.4821846363639756,1.3077715054875303,0.9794704136753138,0.2865572324094545,0.6979486620214895
0.059000000000000004,1.749582424999986,1.0,3124.5387056971335,0.4850891946116326,1.30750665701564,0.9796955342796161,0.2865354618499994,0.6984682904689592
0.059500000000000004,1.7490640783462925,1.0,3128.118229684245,0.4879774591306272,1.3072421634534122,0.9799155390525085,0.28651369129054427,0.6989867761366926
0.06,1.7485457316925992,1.0,3131.6592562897135,0.4908495194880334,1.3069780139661302,0.98013058468116,0.28649192073108914,0.6995041420325585
0.0605,1.7480273850389059,1.0,3135.1629942220206,0.49370546525092535,1.306714197719078,0.9803408218205283,0.286470150171634,0.700020411089102
0.061,1.7475090383852125,1.0,3138.630655800719,0.496545385986377,1.3064507038775388,0.9805463953719451,0.28644837961217895,0.7005356061637789
0.0615,1.746990691731519,1.0,3142.063456877507,0.4993693712614624,1.3061875216067962,0.9807474447467768,0.28642660905272377,0.7010497500391828
0.062,1.7464723450778257,1.0,3145.46261676061,0.5021775106432557,1.305924640072134,0.9809441041160686,0.2864048384932687,0.7015628654232628
0.0625,1.7459539984241323,1.0,3148.8293581405287,0.5049698936988307,1.3056620484388355,0.9811365026470165,0.2863830679338136,0.7020749749495376
0.063,1.745435651770439,1.0,3152.1649070196995,0.5077466099952616,1.305399735872184,0.9813247647270551,0.28636129737435845,0.7025861011772967
0.0635,1.7449173051167455,1.0,3155.4704926437294,0.5105077490996224,1.3051376915374637,0.9815090101763005,0.2863395268149033,0.7030962665917974
0.064,1.7443989584630522,1.0,3158.747347436048,0.5132534005789872,1.3048759045999576,0.9816893544490296,0.2863177562554482,0.7036054936044565
0.0645,1.7438806118093588,1.0,3161.9967069343174,0.5159836540004298,1.3046143642249495,0.9818659088248443,0.28629598569599307,0.7041138045530289
0.065,1.7433622651556653,1.0,3165.2197581873593,0.5186985977985991,1.3043530600127884,0.9820387805339278,0.28627421513653795,0.7046212208573088
0.0655,1.742843918501972,1.0,3168.4147810783265,0.5213982635641156,1.304092006114747,0.9822080703415829,0.2862524445770828,0.7051277162535354
0.066,1.7423255718482786,1.0,3171.585674389574,0.5240828104231856,1.3038311692763473,0.9823738817317241,0.2862306740176277,0.7056333564291057
0.0665,1.7418072251945853,1.0,3174.7329455273293,0.5267523182247371,1.3035705448956396,0.982536310629891,0.28620890345817257,0.7061381513767999
0.067,1.7412888785408918,1.0,3177.8571032855125,0.529406866817698,1.303310128370673,0.9826954496344825,0.28618713289871744,0.7066421110579271
0.0675,1.7407705318871984,1.0,3180.958657823937,0.5320465360509959,1.3030499150994974,0.9828513881555916,0.2861653623392623,0.7071452454023833
0.068,1.7402521852335051,1.0,3184.0381206475145,0.5346714057735588,1.3027899004801624,0.98300421254711,0.2861435917798072,0.7076475643087161
0.0685,1.7397338385798118,1.0,3187.0960045858574,0.5372815558343144,1.3025300799107176,0.9831540062324728,0.2861218212203521,0.7081490776441801
0.069,1.7392154919261182,1.0,3190.132823772714,0.5398770660821905,1.3022704487892127,0.9833008498243959,0.28610005066089694,0.7086497952447957
0.0695,1.738697145272425,1.0,3193.1490936273603,0.542458016366115,1.3020110025136973,0.9834448212389253,0.2860782801014419,0.7091497269154068
0.07,1.7381787986187316,1.0,3196.145330834369,0.5450244865350158,1.3017517364822209,0.9835859958041124,0.2860565095419867,0.7096488824297333
