Time [s],Phi [rad],STIM [ ],Fsee [N],Gamma [ ],Lcerel [ ],q [ ],Lmtc [m],fisomrel [ ]
0.0,1.8,1.0,17.96656403425558,1.1090304127332764e-05,1.3793398127830734,0.005000032753553461,0.288653,0.541139370018185
0.0005,1.79999375,1.0,18.276318141987794,0.00562023740508682,1.379302435110541,0.012943542899500247,0.2886527375,0.5412297918342279
0.001,1.799975,1.0,21.618782222323173,0.01119792162572635,1.378938261191904,0.03561426389661484,0.28865195,0.5421103131532408
0.0015,1.79994375,1.0,31.071273409078472,0.016744319448790648,1.3780460301519275,0.07060949237729469,0.2886506375,0.5442640276988774
0.002,1.7999,1.0,53.587590836487045,0.02225960636537012,1.3763677941515202,0.11472706002000586,0.2886488,0.5483012867522925
0.0025,1.79984375,1.0,97.1281671984533,0.027743956882474607,1.3739347225200462,0.16458470771496345,0.28864643749999996,0.5541225232584694
0.003,1.7997750000000001,1.0,160.97058033976657,0.0331975445307386,1.3712138791154038,0.2172905777402766,0.28864354999999997,0.5605875508676479
0.0035,1.79969375,1.0,237.69758353403645,0.03862054186402146,1.3685842952407092,0.27062295607280445,0.2886401375,0.5667908714984367
0.004,1.7996,1.0,321.4821003431175,0.0440131204701875,1.3661556863942335,0.3229255487243019,0.2886362,0.5724809098251523
0.0045000000000000005,1.7994937500000001,1.0,409.2837653748345,0.04937545097629099,1.3639224382468906,0.3730437595536192,0.2886317375,0.577680034886601
0.005,1.799375,1.0,499.42994805049614,0.05470770303967168,1.361857992918547,0.42025611659350814,0.28862675,0.5824578857173494
0.0055,1.79924375,1.0,590.8070933498734,0.06001004539535601,1.3599385092275547,0.46418171243747997,0.2886212375,0.5868758596143036
0.006,1.7991000000000001,1.0,682.5348799790463,0.06528264579937035,1.3581461098852976,0.5046873274723694,0.2886152,0.5909801147131006
0.006500000000000001,1.79894375,1.0,773.8808875489879,0.0705256708386057,1.3564672599387466,0.541807680149741,0.2886086375,0.5948057799482209
0.007,1.798775,1.0,864.3092301858177,0.0757392872097832,1.3548900167073277,0.5756828506633447,0.28860155,0.5983835332955125
0.0075,1.79859375,1.0,953.2738849183108,0.08092365911614988,1.353406307466216,0.6065153655386472,0.2885939375,0.6017346359792553
0.008,1.7984,1.0,1040.3756462233246,0.08607895051388968,1.352008393233502,0.634537123777945,0.2885858,0.6048791170062762
0.0085,1.79819375,1.0,1125.3352911071167,0.09120532496433673,1.350688943316854,0.6599890046735313,0.2885771375,0.607835666566672
0.009000000000000001,1.797975,1.0,1207.900212858168,0.09630294451259898,1.3494420346095526,0.6831085026814911,0.28856795,0.6106194657140824
0.0095,1.79774375,1.0,1287.8894925754473,0.10137197038131467,1.3482621597056041,0.7041214169144657,0.2885582375,0.6132444774145034
0.01,1.7975,1.0,1365.1767425834196,0.10641256312774316,1.3471442606941422,0.7232377325347459,0.288548,0.6157234128415736
0.0105,1.79724375,1.0,1439.672745214335,0.11142488221396138,1.3460837806037003,0.7406498322326079,0.2885372375,0.6180676556219702
0.011,1.796975,1.0,1511.3235632090632,0.11640908595352911,1.3450765371641427,0.7565320908882189,0.28852595000000003,0.6202875749324109
0.0115,1.79669375,1.0,1580.106588165038,0.12136533174344499,1.3441186553795512,0.7710414033746298,0.2885141375,0.6223927009558982
0.012,1.7964,1.0,1646.0614824653735,0.12629377801517158,1.3432061126172148,0.7843180550990696,0.28850180000000003,0.624392743182971
0.0125,1.79609375,1.0,1709.185856398067,0.1311945795656166,1.3423358983126266,0.7964875528654567,0.2884889375,0.6262950660921143
0.013000000000000001,1.7957750000000001,1.0,1769.5064422461405,0.13606789093144453,1.3415050740187806,0.8076615916480515,0.28847555,0.6281067742966429
0.0135,1.79544375,1.0,1827.0819683458178,0.14091386664931999,1.3407107012886705,0.8179394388805582,0.2884616375,0.6298348789138467
0.014,1.7951000000000001,1.0,1881.981494588999,0.14573266013997557,1.3399500477577075,0.8274093567853067,0.2884472,0.6314858578747844
0.0145,1.79474375,1.0,1934.2870509924091,0.15052442491234255,1.3392205160378867,0.8361498118086664,0.2884322375,0.6330658211064727
0.015,1.794375,1.0,1984.0567682173296,0.15528931153437822,1.3385200037226959,0.8442307189540791,0.28841675,0.6345797419629655
0.0155,1.79399375,1.0,2031.3649132907174,0.16002747042772203,1.3378464310112927,0.8517142793859463,0.2884007375,0.6360324906024611
0.016,1.7936,1.0,2076.2973321092436,0.16473905155374077,1.3371977706466416,0.8586559001069282,0.2883842,0.6374287738231343
0.0165,1.7931937500000001,1.0,2118.946173191878,0.16942420466061772,1.3365720846827878,0.8651050099328562,0.2883671375,0.6387730606259003
0.017,1.792775,1.0,2159.402783759145,0.1740830789402969,1.3359675793061645,0.8711057820150035,0.28834955,0.6400694695636355
0.0175,1.7923437500000001,1.0,2197.7353155792184,0.17871582045089743,1.3353828133274104,0.8766978082769912,0.2883314375,0.6413213282034165
0.018000000000000002,1.7919,1.0,2234.0213581075977,0.1833225752505384,1.3348163455571644,0.881916539844786,0.2883128,0.6425319347823516
0.0185,1.79144375,1.0,2268.3471503911856,0.187903489397339,1.3342667348060653,0.8867937706751425,0.2882936375,0.6437045599556493
0.019,1.790975,1.0,2300.7942351140014,0.1924587074868451,1.3337326646670968,0.891358091346119,0.28827395,0.64484218282589
0.0195,1.79049375,1.0,2331.457837698058,0.19698837585138526,1.3332127517947125,0.8956352110261738,0.2882537375,0.6459479019177146
0.02,1.79,1.0,2360.409902333495,0.2014926372148242,1.3327059034113988,0.8996483651669364,0.288233,0.647024176770424
0.0205,1.78949375,1.0,2387.716131132377,0.2059716328522444,1.3322111376732533,0.9034185507573276,0.2882117375,0.6480732143043455
0.021,1.788975,1.0,2413.4467133213047,0.2104255040387284,1.3317274727363737,0.9069647502359174,0.28818995000000003,0.6490972060967425
0.021500000000000002,1.78844375,1.0,2437.6759500120725,0.21485439204935866,1.3312539267568577,0.9103041524096751,0.2881676375,0.6500983291076605
0.022,1.7879,1.0,2460.473931567901,0.21925843658800395,1.3307895941811185,0.91345236140046,0.2881448,0.6510785854001624
0.0225,1.78734375,1.0,2481.9157633202367,0.2236377791694084,1.3303335529832045,0.9164235490987251,0.28812143749999997,0.6520399992777182
0.023,1.786775,1.0,2502.0649178721487,0.22799255865773788,1.3298850203003374,0.9192306337429522,0.28809755,0.6529842901194068
0.0235,1.78619375,1.0,2520.9750431882712,0.23232291124284682,1.3294433301080202,0.9218854052356317,0.28807313749999996,0.6539129217070729
0.024,1.7856,1.0,2538.701920758413,0.23662897311458972,1.3290078163817558,0.9243986204443622,0.2880482,0.6548273493613166
0.0245,1.78499375,1.0,2555.303286112784,0.24091088046282105,1.3285778130970471,0.9267801079452532,0.2880227375,0.655729020217991
0.025,1.784375,1.0,2570.8386591720578,0.24516876947739535,1.3281526542293978,0.9290388608769765,0.28799675,0.6566193734764072
0.025500000000000002,1.7837438678281252,1.0,2585.367767280159,0.24940277307282632,1.3277317402025877,0.9311831289088266,0.2879702424487812,0.6574997017340038
0.026000000000000002,1.7831080841332054,1.0,2599.3014176905035,0.2536130298847014,1.3273146528453872,0.9332205136416151,0.28794353953359464,0.6583709120940806
0.0265,1.7824723004382859,1.0,2612.8744510195615,0.2577996725067046,1.3269012634621997,0.9351580411352863,0.287916836618408,0.6592333034018416
0.027,1.781836516743366,1.0,2626.0939951180226,0.2619628315561355,1.3264914772207286,0.9370021772103105,0.28789013370322136,0.6600871023667936
0.0275,1.7812007330484463,1.0,2638.9673688838843,0.2661026376502933,1.326085199288677,0.9387588755462416,0.2878634307880347,0.6609325344542849
0.028,1.7805649493535267,1.0,2651.5020747867225,0.27021922140647764,1.3256823348337492,0.9404336250039316,0.2878367278728481,0.6617698239070079
0.0285,1.779929165658607,1.0,2663.705791590805,0.27431271344198777,1.3252827890236483,0.9420314920062063,0.2878100249576615,0.6625991937659335
0.029,1.7792933819636871,1.0,2675.5863672774717,0.27838324437412326,1.324886467026078,0.9435571585463897,0.28778332204247487,0.6634208658906668
0.029500000000000002,1.7786575982687676,1.0,2687.150351408682,0.2824309362214823,1.3244932873907056,0.9450149550069484,0.2877566191272882,0.664235033285628
0.03,1.7780218145738478,1.0,2698.410141731177,0.2864559295507834,1.3241031165152912,0.9464088920343181,0.2877299162121016,0.6650419957432256
0.0305,1.777386030878928,1.0,2709.3743609885455,0.2904583504631627,1.3237158569179892,0.9477426880677069,0.28770321329691495,0.6658419769765687
0.031,1.7767502471840084,1.0,2720.0512237087187,0.29443832283676474,1.3233314161471057,0.9490197946791624,0.28767651038172837,0.666635189197408
0.0315,1.7761144634890886,1.0,2730.44907823348,0.2983959705497341,1.322949701750946,0.9502434191801017,0.28764980746654173,0.6674218435554051
0.032,1.7754786797941688,1.0,2740.576401035208,0.3023314174802155,1.322570621277816,0.9514165449339101,0.2876231045513551,0.6682021501544761
0.0325,1.7748428960992493,1.0,2750.4417912231893,0.30624478750635353,1.322194082276022,0.9525419497446094,0.28759640163616845,0.6689763180685967
0.033,1.7742071124043295,1.0,2760.053965239406,0.3101362045062927,1.3218199922938696,0.9536222225244577,0.2875696987209818,0.6697445553570591
0.0335,1.7735713287094097,1.0,2769.4217517436987,0.31400579235817777,1.3214482588796643,0.9546597784199532,0.28754299580579523,0.6705070690791847
0.034,1.7729355450144901,1.0,2778.554086688371,0.31785367494015326,1.3210787895817124,0.9556568725552257,0.2875162928906086,0.6712640653084899
0.0345,1.7722997613195703,1.0,2787.4526472540883,0.32167995451800746,1.320711558160755,0.9566156142486324,0.28748958997542196,0.6720156137184334
0.035,1.7716639776246506,1.0,2796.127294405614,0.3254847559253614,1.3203464653504977,0.9575379745647961,0.2874628870602353,0.6727619328362321
0.035500000000000004,1.771028193929731,1.0,2804.5987859116303,0.32926823761101537,1.3199833150687246,0.9584257967163916,0.2874361841450487,0.6735034377475426
0.036000000000000004,1.7703924102348112,1.0,2812.872476735241,0.3330305134614266,1.3196220505725742,0.9592808114403898,0.2874094812298621,0.6742402576141034
0.0365,1.7697566265398914,1.0,2820.953783282436,0.3367716973630522,1.319262615119185,0.9601046418626643,0.2873827783146754,0.6749725210052905
0.037,1.7691208428449718,1.0,2828.848181065958,0.34049190320234946,1.3189049519656961,0.9608988114075512,0.2873560753994888,0.6757003559048376
0.0375,1.768485059150052,1.0,2836.5612024390275,0.34419124486577557,1.318549004369246,0.9616647510412444,0.2873293724843022,0.6764238897173536
0.038,1.7678492754551323,1.0,2844.0984344020776,0.3478698362397877,1.3181947155869735,0.9624038059118933,0.28730266956911554,0.6771432492746334
0.0385,1.7672134917602127,1.0,2851.4655164798182,0.3515277912108431,1.3178420288760173,0.963117241442729,0.28727596665392896,0.6778585608417633
0.039,1.766577708065293,1.0,2858.6681386699497,0.35516522366539893,1.3174908874935158,0.963806248928751,0.28724926373874227,0.678569950123022
0.0395,1.7659419243703731,1.0,2865.7120394639337,0.3587822474899124,1.3171412346966078,0.9644719506823628,0.2872225608235557,0.6792775422675738
0.04,1.7653061406754536,1.0,2872.6030039373386,0.36237897657084067,1.3167930137424324,0.9651154047687638,0.28719585790836905,0.6799814618749587
0.0405,1.7646703569805338,1.0,2879.3468619141927,0.36595552479464105,1.3164461678881278,0.9657376093678288,0.2871691549931824,0.6806818330003789
0.041,1.764034573285614,1.0,2885.9494862002707,0.3695120060477707,1.316100640390833,0.9663395067955775,0.28714245207799577,0.6813787791597743
0.0415,1.7633987895906944,1.0,2892.4167908893114,0.37304853421668677,1.3157563745076866,0.9669219872150964,0.28711574916280913,0.682072423334699
0.042,1.7627630058957746,1.0,2898.754729739987,0.37656522318784647,1.3154133134958272,0.9674858920638786,0.28708904624762255,0.6827628879769867
0.0425,1.7621272222008548,1.0,2904.9692946242517,0.3800621868477071,1.3150714006123938,0.9680320172219558,0.2870623433324359,0.6834502950132157
0.043000000000000003,1.7614914385059353,1.0,2911.0665140474944,0.38353953908272576,1.3147305791145247,0.9685611159428867,0.28703564041724927,0.6841347658489665
0.043500000000000004,1.7608556548110155,1.0,2917.049168467034,0.3869973794731343,1.3143908211277333,0.9690739016589714,0.28700893750206263,0.684816363490528
0.044,1.7602198711160957,1.0,2922.9205314422065,0.3904358168022207,1.3140520946277894,0.9695710515373602,0.286982234586876,0.6854951589920217
0.0445,1.7595840874211761,1.0,2928.689286489243,0.3938549825730506,1.3137143203096768,0.9700532073175164,0.2869555316716894,0.6861713177061144
0.045,1.7589483037262563,1.0,2934.3582881315297,0.3972549803774818,1.3133774703369525,0.9705209776033887,0.2869288287565028,0.6868449014196826
0.0455,1.7583125200313365,1.0,2939.930408966486,0.4006359138073722,1.3130415168731724,0.9709749401212927,0.28690212584131614,0.6875159716637224
0.046,1.757676736336417,1.0,2945.408539103405,0.4039978864545795,1.3127064320818929,0.9714156435849239,0.2868754229261295,0.6881845897149634
0.0465,1.7570409526414972,1.0,2950.79558561853,0.4073410019109617,1.3123721881266706,0.9718436094304459,0.28684872001094286,0.6888508165974361
0.047,1.7564051689465774,1.0,2956.0944720279663,0.41066536376837653,1.3120387571710619,0.9722593334318544,0.2868220170957563,0.6895147130839894
0.0475,1.7557693852516578,1.0,2961.308137776886,0.4139710756186819,1.3117061113786228,0.9726632872059457,0.28679531418056964,0.6901763396977603
0.048,1.755133601556738,1.0,2966.4395377466894,0.41725824105373566,1.31137422291291,0.9730559196153978,0.286768611265383,0.6908357567135889
0.0485,1.7544978178618182,1.0,2971.491641778778,0.4205269636653956,1.31104306393748,0.9734376580777526,0.28674190835019636,0.6914930241593902
0.049,1.7538620341668987,1.0,2976.4674342160124,0.42377734704551967,1.3107126066158885,0.973808909787427,0.2867152054350097,0.6921482018174749
0.0495,1.7532262504719789,1.0,2981.3699134607014,0.42700949478596556,1.3103828231116927,0.974170062857274,0.28668850251982314,0.6928013492258153
0.05,1.752590466777059,1.0,2986.202091550421,0.43022351047859125,1.3100536855884484,0.9745214873856846,0.28666179960463645,0.6934525256792717
0.0505,1.7519546830821395,1.0,2990.966993750845,0.43341949771525456,1.3097251662097122,0.9748635364547072,0.28663509668944986,0.6941017902307594
0.051000000000000004,1.7513188993872197,1.0,2995.667658165173,0.43659756008781325,1.3093972371390405,0.975196547064237,0.2866083937742632,0.6947492016923735
0.051500000000000004,1.7506831156923,1.0,3000.3052083053058,0.4397577848144459,1.3090698872470108,0.9755208402993529,0.2865816908590766,0.6953947857051022
0.052000000000000005,1.7500473319973804,1.0,3004.8810049064723,0.4429002668077285,1.3087431034030812,0.9758367236339743,0.28655498794389,0.6960385717507471
0.0525,1.7494115483024606,1.0,3009.4010546331424,0.4460251411664968,1.3084168323174536,0.9761444926298724,0.2865282850287033,0.6966806681864404
0.053,1.7487757646075408,1.0,3013.8667522547325,0.4491325018448738,1.3080910607703131,0.9764444280324228,0.28650158211351673,0.6973211041882119
0.0535,1.7481399809126212,1.0,3018.2794987600746,0.4522224427969825,1.307765775541845,0.9767367984012689,0.2864748791983301,0.6979599088173682
0.054,1.7475041972177014,1.0,3022.6407012139716,0.45529505797694575,1.3074409634122346,0.9770218607427985,0.28644817628314345,0.6985971110209089
0.0545,1.7468684135227817,1.0,3026.9517726161116,0.4583504413388865,1.307116611161667,0.9772998611046244,0.2864214733679568,0.6992327396319307
0.055,1.746232629827862,1.0,3031.214131764406,0.4613886868369278,1.3067927055703277,0.9775710351346517,0.2863947704527702,0.6998668233700199
0.0555,1.7455968461329423,1.0,3035.429203122413,0.46440988842519254,1.3064692334184014,0.9778356086071169,0.2863680675375836,0.7004993908416373
0.056,1.7449610624380225,1.0,3039.5984166895946,0.46741414005780374,1.3061461814860738,0.9780937979178158,0.28634136462239695,0.7011304705404847
0.0565,1.744325278743103,1.0,3043.7232078772513,0.4704015356888842,1.3058235365535298,0.978345810550554,0.2863146617072103,0.7017600908478694
0.057,1.7436894950481832,1.0,3047.8050173864954,0.4733721692725571,1.305501285400955,0.9785918455167226,0.2862879587920237,0.7023882800330494
0.0575,1.7430537113532634,1.0,3051.845291091275,0.4763261347629452,1.305179414808534,0.9788320937697482,0.28626125587683704,0.7030150662535737
0.058,1.7424179276583438,1.0,3055.845479924861,0.47926352611417156,1.3048579115564527,0.9790667385960483,0.28623455296165046,0.7036404775556061
0.0585,1.741782143963424,1.0,3059.8070397698575,0.4821844372803591,1.304536762424896,0.9792959559839972,0.2862078500464638,0.7042645418742425
0.059000000000000004,1.7411463602685042,1.0,3063.73143135313,0.48508896221563075,1.3042159541940492,0.9795199149723077,0.2861811471312772,0.7048872870338143
0.059500000000000004,1.7405105765735847,1.0,3067.6201201434646,0.4879771948741095,1.3038954736440973,0.9797387779791308,0.28615444421609054,0.7055087407481817
0.06,1.7398747928786649,1.0,3071.4745762537227,0.4908492292099183,1.3035753075552259,0.9799527011130779,0.2861277413009039,0.7061289306210141
0.0605,1.7392390091837453,1.0,3075.296020177358,0.49370515449548963,1.3032554448841627,0.980161834213264,0.2861010383857173,0.7067478799365707
0.061,1.7386032254888255,1.0,3079.0829744850093,0.49654501617980523,1.3029358977094936,0.9803663192075275,0.2860743354705307,0.707365567216018
0.0615,1.7379674417939057,1.0,3082.8399035169227,0.49936897236941086,1.3026166272664155,0.9805662987009828,0.28604763255534404,0.7079820692024853
0.062,1.7373316580989862,1.0,3086.5674410633437,0.5021771072133909,1.3022976276317655,0.980761905939477,0.2860209296401574,0.7085973990057604
0.0625,1.7366958744040664,1.0,3090.2662230837923,0.5049695048608295,1.301978892882381,0.9809532692131445,0.28599422672497077,0.709211569686006
0.063,1.7360600907091466,1.0,3093.9368876717863,0.507746249460811,1.3016604170950992,0.981140512077756,0.2859675238097842,0.709824594253861
0.0635,1.735424307014227,1.0,3097.5800750203703,0.5105074251624198,1.3013421943467571,0.9813237535645931,0.28594082089459755,0.7104364856705397
0.064,1.7347885233193072,1.0,3101.196427388744,0.5132531161147398,1.3010242187141925,0.981503108379525,0.2859141179794109,0.7110472568479274
0.0645,1.7341527396243874,1.0,3104.7865890692797,0.5159834064668556,1.3007064842742422,0.981678687091918,0.28588741506422427,0.7116569206486765
0.065,1.7335169559294679,1.0,3108.351206355424,0.5186983803678513,1.3003889851037433,0.9818505963139643,0.28586071214903763,0.7122654898862981
0.0655,1.732881172234548,1.0,3111.8909275105166,0.5213981219668112,1.3000717152795334,0.9820189388709857,0.28583400923385105,0.7128729773252509
0.066,1.7322453885396283,1.0,3115.4064027368618,0.5240827154128196,1.2997546688784496,0.9821838139632262,0.28580730631866436,0.7134793956810301
0.0665,1.7316096048447087,1.0,3118.898284146981,0.5267522448549607,1.2994378399773292,0.9823453173196153,0.2857806034034778,0.7140847576202531
0.067,1.730973821149789,1.0,3122.3672257333965,0.5294067944423189,1.2991212226530096,0.9825035413439576,0.28575390048829113,0.714689075760742
0.0675,1.7303380374548691,1.0,3125.813883341511,0.5320464483239783,1.2988048109823274,0.98265857525397,0.2857271975731045,0.7152923626716059
0.068,1.7297022537599496,1.0,3129.238914641578,0.5346712906490232,1.2984885990421204,0.9828105052135648,0.28570049465791786,0.7158946308733172
0.0685,1.7290664700650298,1.0,3132.642979102366,0.537281405566538,1.298172580909226,0.9829594144587525,0.2856737917427312,0.7164958928377906
0.069,1.72843068637011,1.0,3136.0267379653505,0.5398768772256068,1.2978567506604808,0.983105383417511,0.28564708882754464,0.7170961609884572
0.0695,1.7277949026751904,1.0,3139.390854219266,0.542457789775314,1.2975411023727226,0.9832484898239555,0.285620385912358,0.717695447700335
0.07,1.7271591189802706,1.0,3142.735992576384,0.5450242273647437,1.2972256301227882,0.9833888088271104,0.28559368299717136,0.7182937653001004
0.07050000000000001,1.7265233352853508,1.0,3146.0628194485816,0.5475762741429803,1.2969103279875152,0.9835264130945777,0.2855669800819847,0.7188911260661549
