Time [s],Phi [rad],STIM [ ],Fsee [N],Gamma [ ],Lcerel [ ],q [ ],Lmtc [m],fisomrel [ ]
0.0,1.8,1.0,20.7101089898584,0.0016935523934401954,1.3790433545053558,0.005732973144756904,0.288653,0.5418562991241301
0.0005,1.79999375,1.0,21.476031601658864,0.007293262212444289,1.3789613328211243,0.018265718022280303,0.2886527375,0.5420545542934856
0.001,1.799975,1.0,26.08758140149111,0.012861562086870523,1.3785032674795492,0.04490937391284234,0.28865195,0.5431609582503343
0.0015,1.79994375,1.0,38.53825524530776,0.018398628202297172,1.3774441077567696,0.08298191046555695,0.2886506375,0.5457141119888269
0.002,1.7999,1.0,66.78292322713737,0.023904635754665653,1.375558851035355,0.12915567838480704,0.2886488,0.5502409101052427
0.0025,1.79984375,1.0,116.90143381356017,0.02937975895820753,1.3730260472447482,0.1801396584277828,0.28864643749999996,0.5562868880005067
0.003,1.7997750000000001,1.0,185.23131725359332,0.03482417104960993,1.3703376680686128,0.2332441300587941,0.28864354999999997,0.5626594757956058
0.0035,1.79969375,1.0,264.3315825672801,0.040238044293562245,1.3677856990437942,0.28642413828537716,0.2886401375,0.5686660700856749
0.004,1.7996,1.0,349.3696197619037,0.04562154998709618,1.3654324290269422,0.33817822508019163,0.2886362,0.5741681754319798
0.0045000000000000005,1.7994937500000001,1.0,437.86422478074496,0.050974858476541346,1.3632628790891848,0.3874898314273751,0.2886317375,0.5792094409306007
0.005,1.799375,1.0,528.3633952686108,0.05629813913726628,1.3612518253601809,0.43374956457402886,0.28862675,0.583855608016382
0.0055,1.79924375,1.0,619.8313614714998,0.061591560405306965,1.3593782517908133,0.4766601002736295,0.2886212375,0.5881609443232743
0.006,1.7991000000000001,1.0,711.4383617814128,0.0668552897326715,1.3576261753532344,0.5161460353275525,0.2886152,0.5921668325963574
0.006500000000000001,1.79894375,1.0,802.5143600990423,0.07208949377040438,1.3559829072097893,0.5522792942454179,0.2886086375,0.5959061536175592
0.007,1.798775,1.0,892.4780526446518,0.07729433792775792,1.3544386542457127,0.5852231721235323,0.28860155,0.5994044654862503
0.0075,1.79859375,1.0,980.8905028689617,0.08246998720516256,1.3529845747968345,0.6151911091443104,0.2885939375,0.6026845980723786
0.008,1.7984,1.0,1067.3669323839308,0.08761660511224435,1.3516135487506458,0.6424197523986497,0.2885858,0.6057650265783714
0.0085,1.79819375,1.0,1151.6092223871397,0.09273435437753715,1.3503191505257905,0.6671503405909152,0.2885771375,0.6086622856342108
0.009000000000000001,1.797975,1.0,1233.413061700385,0.0978233974189095,1.3490952534419065,0.6896173017917558,0.28856795,0.6113919133428924
0.0095,1.79774375,1.0,1312.6019122320552,0.10288389490406845,1.3479367017908355,0.7100421456336089,0.2885582375,0.6139670011062348
0.01,1.7975,1.0,1389.0531460544423,0.10791600681747668,1.3468387156306907,0.7286297742931233,0.288548,0.6163995705983829
0.0105,1.79724375,1.0,1462.7032813823998,0.11291989246908662,1.3457966807284023,0.7455670883304846,0.2885372375,0.6187010701441946
0.011,1.796975,1.0,1533.522130939836,0.11789571076816593,1.3448063606640306,0.7610230928429271,0.28852595000000003,0.6208819312679416
0.0115,1.79669375,1.0,1601.4753259968656,0.12284361838665152,1.3438642289982392,0.7751497819689389,0.2885141375,0.6229508673961943
0.012,1.7964,1.0,1666.5729451896016,0.1277637719224297,1.3429667731423467,0.7880829659653558,0.28850180000000003,0.6249164302306318
0.0125,1.79609375,1.0,1728.8517509598282,0.13265632704169011,1.3421106494809532,0.799943714013297,0.2884889375,0.6267866821164554
0.013000000000000001,1.7957750000000001,1.0,1788.3729752331312,0.1375214398052563,1.341292651580695,0.8108397623067441,0.28847555,0.6285692792634511
0.0135,1.79544375,1.0,1845.1688154481462,0.1423592629373718,1.3405102539040863,0.8208671018698438,0.2884616375,0.6302703028895877
0.014,1.7951000000000001,1.0,1899.297433891314,0.14716994916228013,1.3397609309136393,0.830111002068842,0.2884472,0.6318957583695701
0.0145,1.79474375,1.0,1950.8374288612413,0.15195365094277258,1.33904219244502,0.8386472398026188,0.2884322375,0.6334515042795729
0.015,1.794375,1.0,1999.8726019744004,0.15671051992861845,1.3383517210086413,0.8465432450516023,0.28841675,0.634942962023248
0.0155,1.79399375,1.0,2046.4945862020215,0.16144070784446424,1.3376873140291894,0.8538590597000523,0.2884007375,0.6363752485451264
0.016,1.7936,1.0,2090.766380676215,0.166144363004518,1.337047238957672,0.8606483150435481,0.2883842,0.637752419359088
0.0165,1.7931937500000001,1.0,2132.7643012906574,0.1708216337229878,1.3364297632450979,0.866958845311318,0.2883671375,0.6390784898049982
0.017,1.792775,1.0,2172.576862461107,0.17547266831408187,1.335833154342475,0.8728333745191503,0.28834955,0.6403574376415284
0.0175,1.7923437500000001,1.0,2210.288306527729,0.1800976136327421,1.3352558354464366,0.8783101615935571,0.2883314375,0.6415928724461475
0.018000000000000002,1.7919,1.0,2245.998832135813,0.18469661814950886,1.3346961667148542,0.8834234664065288,0.2883128,0.642788507609638
0.0185,1.79144375,1.0,2279.7808169402465,0.18926982641417447,1.3341528746162479,0.8882041223384384,0.2882936375,0.6439472461278639
0.019,1.790975,1.0,2311.705597348202,0.19381738208753285,1.333624766647966,0.8926798584561586,0.28827395,0.6450717955328134
0.0195,1.79049375,1.0,2341.850855204398,0.19833942883037775,1.3331106503073573,0.8968756347788734,0.2882537375,0.6461648426396988
0.02,1.79,1.0,2370.30008283844,0.20283611030350304,1.332609333091771,0.900813955694876,0.288233,0.647229054656401
0.0205,1.78949375,1.0,2397.1242948198174,0.207307567899427,1.332119794999226,0.9045151819828313,0.2882117375,0.6482667148267605
0.021,1.788975,1.0,2422.4150536716074,0.21175394628013638,1.3316408608086052,0.9079976986144934,0.28818995000000003,0.6492804191394367
0.021500000000000002,1.78844375,1.0,2446.232395964799,0.21617538463177519,1.33117170018176,0.9112782315835304,0.2881676375,0.6502720184908242
0.022,1.7879,1.0,2468.636640153017,0.2205720216866904,1.3307115118920545,0.9143719624766358,0.2881448,0.6512432905040546
0.0225,1.78734375,1.0,2489.691104337156,0.22494399617722907,1.330259494712853,0.9172926872284886,0.28812143749999997,0.6521960017602393
0.023,1.786775,1.0,2509.4618537106157,0.22929144683573813,1.3298148474175198,0.9200529617797105,0.28809755,0.6531319082364737
0.0235,1.78619375,1.0,2528.010296771502,0.23361451076716988,1.3293768364565817,0.9226642424037579,0.28807313749999996,0.6540526135390761
0.024,1.7856,1.0,2545.402102234371,0.23791332677381188,1.3289447087588047,0.9251369838716356,0.2880482,0.6549597531236773
0.0245,1.78499375,1.0,2561.6960849897614,0.24218803178729345,1.32851779450266,0.9274807568070565,0.2880227375,0.6558547790022577
0.025,1.784375,1.0,2576.9387400621267,0.24643875929000414,1.3280955552735212,0.9297043427357758,0.28799675,0.6567388603627544
0.025500000000000002,1.78374375,1.0,2591.177978065537,0.2506656427643334,1.3276774526567612,0.9318157907284517,0.2879702375,0.6576131601415052
0.026000000000000002,1.7831000000000001,1.0,2604.4630052203875,0.2548688156926708,1.3272629482377527,0.933822488425182,0.2879432,0.6584788351745344
0.0265,1.78244375,1.0,2616.8442097973443,0.2590484115574057,1.3268515036018687,0.9357312253065364,0.2879156375,0.6593370363303497
0.027,1.781775,1.0,2628.3668548680084,0.26320456211651877,1.3264426377652045,0.9375482572356847,0.28788755,0.6601887890589779
0.0275,1.7810937500000001,1.0,2639.0751244568496,0.26733739995149747,1.3260358882572993,0.9392793511434561,0.2878589375,0.6610350751539344
0.028,1.7804,1.0,2649.0215240213324,0.2714470591334553,1.3256307234266202,0.9409298172319782,0.2878298,0.6618770151806632
0.0285,1.77969375,1.0,2658.2392916999756,0.2755336674449151,1.32522679644017,0.9425045838966275,0.2878001375,0.6627153408076027
0.029,1.778975,1.0,2666.762252979541,0.2795973526683996,1.324823760464951,0.9440082078763117,0.28776995,0.6635507800937758
0.029500000000000002,1.7782437500000001,1.0,2674.624769098984,0.28363824258643144,1.3244212686679664,0.945444907066905,0.2877392375,0.6643840575123315
0.03,1.7775,1.0,2681.861688121581,0.28765646498153347,1.324018974216218,0.9468185900462731,0.287708,0.6652158939664217
0.0305,1.77674375,1.0,2688.508298673359,0.2916521476362284,1.3236165302767091,0.9481328826762097,0.2876762375,0.6660470067973974
0.031,1.775975,1.0,2694.5990019838137,0.2956254176458545,1.323213601766196,0.9493911533706787,0.28764395,0.6668780855654429
0.0315,1.7751937500000001,1.0,2700.161303074,0.2995763993575614,1.3228099198302499,0.9505965407637667,0.2876111375,0.667709680035675
0.032,1.7744,1.0,2705.2317287745677,0.3035052227942415,1.3224051358576532,0.9517519574057208,0.2875778,0.6685425011881639
0.0325,1.77359375,1.0,2709.8328250565855,0.30741200999176754,1.3219990314033052,0.9528601292781664,0.2875439375,0.6693769890795066
0.033,1.772775,1.0,2713.9873479372986,0.31129688298601227,1.3215913880221046,0.9539235977822673,0.28750955,0.6702135814732657
0.0335,1.7719437500000002,1.0,2717.718243063944,0.3151599638128485,1.321181987268951,0.9549447344500517,0.2874746375,0.6710527138200492
0.034,1.7711000000000001,1.0,2721.0486263549647,0.31900137450814897,1.3207706106987431,0.9559257543167653,0.2874392,0.6718948192345516
0.0345,1.7702437500000001,1.0,2724.0017656996333,0.32282123710778654,1.3203570398663802,0.956868728090263,0.2874032375,0.6727403284695488
0.035,1.7693750000000001,1.0,2726.6010637153367,0.32661967364763395,1.319941056326761,0.9577755932382908,0.28736675,0.6735896698868504
0.035500000000000004,1.76849375,1.0,2728.859912677159,0.3303967957030876,1.3195225337132417,0.9586481712637235,0.2873297375,0.6744430817904028
0.036000000000000004,1.7676,1.0,2730.813326605155,0.33415273837237247,1.3191011499810312,0.9594881546496611,0.2872922,0.675301199237192
0.0365,1.76669375,1.0,2732.4761013713132,0.3378876180674624,1.3186767677274547,0.9602971453318159,0.2872541375,0.6761642784144831
0.037,1.765775,1.0,2733.862093697069,0.34160155019812843,1.3182492586849406,0.961076647744911,0.28721555,0.677032555314049
0.0375,1.76484375,1.0,2734.9852182790864,0.34529465017414146,1.3178184945859175,0.9618280752054363,0.2871764375,0.677906264346751
0.038,1.7639,1.0,2735.8594408096146,0.34896703340527246,1.317384347162814,0.9625527564342884,0.28713679999999997,0.6787856383164362
0.0385,1.76294375,1.0,2736.4987713616642,0.35261881530129235,1.316946688148059,0.963251941543755,0.28709663750000003,0.6796709083927841
0.039,1.761975,1.0,2736.9172581389535,0.3562501112719721,1.3165053892740808,0.9639268075381772,0.28705595,0.6805623040831078
0.0395,1.7609937500000001,1.0,2737.1289815908694,0.3598610367270827,1.3160603222733083,0.9645784633726064,0.2870147375,0.6814600532031012
0.04,1.76,1.0,2737.1480488918096,0.36345170707639507,1.3156113588781702,0.9652079546093287,0.286973,0.6823643818465398
0.0405,1.7589937500000001,1.0,2736.9885887855303,0.3670222377296801,1.315158370821095,0.9658162677081462,0.2869307375,0.6832755143539324
0.041,1.757975,1.0,2736.6556671097405,0.3705727344109587,1.3147013122573763,0.9664043393990858,0.28688795,0.6841935078555017
0.0415,1.75694375,1.0,2736.1698791141794,0.37410332129717455,1.3142399964992921,0.9669730458238783,0.2868446375,0.6851187008932553
0.042,1.7559,1.0,2735.5409147953164,0.3776141092810312,1.3137743359353267,0.9675232212478407,0.28680079999999997,0.6860512312128342
0.0425,1.75484375,1.0,2734.776316707392,0.3811052067847059,1.313304262521145,0.9680556560116895,0.2867564375,0.6869911960653107
0.043000000000000003,1.753775,1.0,2733.8836336977024,0.3845767222303759,1.3128297082124118,0.968571098157942,0.28671155,0.6879386915170194
0.043500000000000004,1.75269375,1.0,2732.8704190992657,0.3880287640402186,1.3123506049647926,0.9690702561156778,0.28666613750000003,0.6888938124302554
0.044,1.7516,1.0,2731.7442290251543,0.391461440636411,1.311866884733952,0.969553801189038,0.2866202,0.6898566524436858
0.0445,1.75049375,1.0,2730.512620766674,0.39487486044113046,1.3113784794755554,0.9700223698656116,0.2865737375,0.690827303952459
0.045,1.7493750000000001,1.0,2729.1831512929393,0.3982691318765543,1.3108853211452673,0.970476565959395,0.28652675,0.6918058580880229
0.0455,1.74824375,1.0,2727.7633758539646,0.40164436336485965,1.3103873416987533,0.9709169626016775,0.2864792375,0.6927924046976448
0.046,1.7471,1.0,2726.2608466862093,0.4050006633282238,1.3098844730916779,0.9713441040920144,0.2864312,0.693787032323639
0.0465,1.7459437500000001,1.0,2724.6782921232225,0.408338124524207,1.3093766911276596,0.9717585087303674,0.28638263750000004,0.6947897416674129
0.047,1.744775,1.0,2723.027269144995,0.4116568709889015,1.3088638912709023,0.9721606676194577,0.28633355,0.695800690908789
0.0475,1.74359375,1.0,2721.313842144252,0.41495701110446576,1.308346018886072,0.9725510493584554,0.28628393750000003,0.6968199382560909
0.048,1.7424,1.0,2719.5417610368836,0.4182386457679868,1.3078230403664024,0.9729301004176014,0.2862338,0.6978474994246946
0.0485,1.74119375,1.0,2717.71477294584,0.42150187587655186,1.3072949221051258,0.9732982459047347,0.2861831375,0.698883389184964
0.049,1.739975,1.0,2715.836621811264,0.42474680232724793,1.306761630495476,0.9736558907802777,0.28613195,0.6999276213512664
0.0495,1.73874375,1.0,2713.9110480268396,0.4279735260171622,1.3062231319306854,0.9740034209924082,0.2860802375,0.7009802087709249
0.05,1.7375,1.0,2711.9417881007603,0.4311821478433819,1.3056793928039876,0.9743412045383368,0.286028,0.7020411633130914
0.0505,1.73624375,1.0,2709.932574341507,0.43437276870299396,1.3051303795086153,0.9746695924571253,0.2859752375,0.7031104958575523
0.051000000000000004,1.734975,1.0,2707.8871345691264,0.43754548949308564,1.304576058437802,0.9749889197590251,0.28592195,0.7041882162834584
0.051500000000000004,1.73369375,1.0,2705.809191851187,0.440700411110744,1.3040163959847808,0.9752995062959319,0.2858681375,0.7052743334579877
0.052000000000000005,1.7324,1.0,2703.702464263879,0.4438376344530562,1.3034513585427843,0.9756016575771638,0.2858138,0.7063688552249318
0.0525,1.73109375,1.0,2701.570664678313,0.44695726041710926,1.302880912505046,0.9758956655344496,0.28575893750000003,0.70747178839321
0.053,1.729775,1.0,2699.417500571701,0.4500593898999905,1.3023050242647989,0.9761818092396986,0.28570355000000003,0.7085831387253169
0.0535,1.72844375,1.0,2697.240434526265,0.45314409433002456,1.301723717266603,0.97646035611388,0.2856476375,0.7097028011442061
0.054,1.7271,1.0,2695.0482448908206,0.4562115055286076,1.3011369114843034,0.9767315617770087,0.2855912,0.710830869074282
0.0545,1.7257437500000001,1.0,2692.844072702267,0.4592617249567786,1.300544578352023,0.9769956709321269,0.2855342375,0.7119673355331781
0.055,1.724375,1.0,2690.6292505526526,0.46229484493275946,1.2999467058144984,0.9772529179771483,0.28547675,0.7131121609407868
0.0555,1.72299375,1.0,2688.4051089471104,0.4653109577747723,1.299343281816466,0.9775035274429941,0.2854187375,0.7142653049468998
0.056,1.7216,1.0,2686.1729762770688,0.4683101558010392,1.298734294302662,0.977747714488016,0.2853602,0.7154267264269467
0.0565,1.72019375,1.0,2683.9341787966932,0.471292531329782,1.2981197312178232,0.977985685363726,0.28530113749999997,0.7165963834777196
0.057,1.718775,1.0,2681.690040603093,0.47425817667922293,1.2974995805066853,0.9782176378537125,0.28524155,0.7177742334130939
0.0575,1.71734375,1.0,2679.4418836186505,0.4772071841675839,1.2968738301139853,0.9784437616874934,0.2851814375,0.7189602327597342
0.058,1.7159,1.0,2677.1910275779064,0.48013964611308696,1.2962424679844593,0.9786642389309259,0.2851208,0.7201543372527953
0.0585,1.71444375,1.0,2674.9387900167508,0.4830556548339542,1.2956054820628438,0.9788792443546781,0.2850596375,0.7213565018316128
0.059000000000000004,1.7129750000000001,1.0,2672.686486264974,0.48595530264840753,1.294962860293875,0.9790889457821554,0.28499795,0.7225666806353827
0.059500000000000004,1.71149375,1.0,2670.435429442392,0.48883868187466906,1.2943145906222893,0.979293504418182,0.2849357375,0.7237848269988338
0.06,1.71,1.0,2668.186930457773,0.4917058848309607,1.2936606609928234,0.9794930751596431,0.284873,0.7250108934478892
0.0605,1.7084937500000001,1.0,2665.942298011474,0.49455700383550466,1.2930010593502133,0.9796878068892093,0.2848097375,0.7262448316953215
0.061,1.7069750000000001,1.0,2663.7028386006173,0.49739213120652287,1.2923357736391956,0.9798778427531852,0.28474595,0.7274865926363935
0.0615,1.7054437500000001,1.0,2661.469856528039,0.5002113592622374,1.2916647918045068,0.9800633204244602,0.2846816375,0.7287361263444954
0.062,1.7039,1.0,2659.241132359013,0.503014745039945,1.2909881342205825,0.9802443713398872,0.2846168,0.729993321884006
0.0625,1.70234375,1.0,2657.020126984621,0.5058024124044497,1.290305768964576,0.9804211243880098,0.2845514375,0.7312581648784637
0.063,1.7007750000000001,1.0,2654.808448840671,0.5085744602094935,1.2896176811337785,0.9805937025979518,0.28448555,0.732530608337669
0.0635,1.69919375,1.0,2652.6062908870313,0.5113309717551047,1.2889238688522613,0.9807622239440329,0.28441913750000003,0.7338105803808715
0.064,1.6976,1.0,2650.4138457865124,0.514072030341312,1.2882243302440963,0.9809268020689565,0.2843522,0.7350980084672899
0.0645,1.69599375,1.0,2648.2313059092044,0.5167977192681437,1.287519063433355,0.9810875464728814,0.2842847375,0.7363928193954283
0.065,1.694375,1.0,2646.058863335117,0.5195081218356282,1.2868080665441093,0.9812445626929056,0.28421675,0.7376949393023909
0.0655,1.69274375,1.0,2643.8967098579296,0.5222033213437941,1.2860913377004304,0.9813979524735104,0.2841482375,0.7390042936631962
0.066,1.6911,1.0,2641.7450369885314,0.5248834010926698,1.2853688750263903,0.981547813928486,0.2840792,0.7403208072900906
0.0665,1.6894437500000001,1.0,2639.60403595896,0.5275484443822838,1.2846406766460605,0.9816942416948184,0.2840096375,0.7416444043318648
0.067,1.687775,1.0,2637.473897725451,0.5301985345126645,1.283906740683513,0.9818373270789895,0.28393955,0.742975008273165
0.0675,1.68609375,1.0,2635.354812973049,0.5328337547838403,1.2831670652628189,0.9819771581961185,0.2838689375,0.744312541933809
0.068,1.6844000000000001,1.0,2633.2469721188786,0.5354541884958398,1.2824216485080504,0.9821138201023402,0.2837978,0.7456569274680971
0.0685,1.68269375,1.0,2631.150565316395,0.5380599189486913,1.2816704885432786,0.9822473949207906,0.2837261375,0.7470080863641287
0.069,1.680975,1.0,2629.0657824594227,0.5406510294424234,1.2809135834925758,0.9823779619615572,0.28365395,0.7483659394431112
0.0695,1.67924375,1.0,2626.9928131860815,0.5432276032770643,1.280150931480013,0.9825055978359133,0.28358123749999997,0.7497304068586768
0.07,1.6775,1.0,2624.931846883171,0.5457897237526428,1.2793825306296625,0.9826303765651534,0.283508,0.7511014080961917
0.07050000000000001,1.67574375,1.0,2622.8830726904794,0.5483374741691871,1.2786083790655953,0.9827523696843146,0.2834342375,0.7524788619720713
0.07100000000000001,1.673975,1.0,2620.8466795048425,0.5508709378267258,1.2778284749118836,0.9828716463410596,0.28335995,0.7538626866330895
0.07150000000000001,1.67219375,1.0,2618.821457810558,0.5533901583290218,1.2770428292672495,0.9829882715911069,0.2832851375,0.7552527766313699
0.07200000000000001,1.6704,1.0,2616.808226104362,0.5558952465786939,1.2762514344215963,0.9831023115336144,0.2832098,0.7566490592474824
0.0725,1.66859375,1.0,2614.807659158666,0.5583863039480453,1.2754542839883383,0.9832138295800937,0.2831339375,0.758051458649464
0.073,1.6667750000000001,1.0,2612.819543560917,0.560863404657345,1.274651379823404,0.9833228858519171,0.28305755,0.7594598838045289
0.0735,1.66494375,1.0,2610.843666281496,0.5633266229268613,1.2738427237827221,0.9834295385327227,0.2829806375,0.7608742430843742
0.074,1.6631,1.0,2608.8798146697777,0.5657760329768631,1.2730283177222208,0.9835338439420027,0.2829032,0.7622944442658611
0.0745,1.6612437500000001,1.0,2606.9277764495505,0.568211709027619,1.2722081634978286,0.9836358566054278,0.2828252375,0.7637203945316946
0.075,1.659375,1.0,2604.987339714928,0.5706337252993975,1.271382262965474,0.9837356293220748,0.28274675,0.7651520004711042
0.0755,1.65749375,1.0,2603.058292925869,0.5730421560124674,1.2705506179810857,0.983833213228709,0.2826677375,0.766589168080525
