Time [s],Phi [rad],STIM [ ],Fsee [N],Gamma [ ],Lcerel [ ],q [ ],Lmtc [m],fisomrel [ ]
0.0,1.8,1.0,20.736716849739306,0.001701702612677605,1.3790405788425553,0.005740006490262765,0.288653,0.5418630088989179
0.0005,1.79999375,1.0,21.504390064608586,0.0073013667153937305,1.378958427796944,0.018294610935078177,0.2886527375,0.5420615752604222
0.001,1.799975,1.0,26.122316587263928,0.012869621129960264,1.3785000390181101,0.04495689020118511,0.28865195,0.543168751477325
0.0015,1.79994375,1.0,38.58922774714418,0.01840664204053067,1.3774402098291498,0.08304356741695712,0.2886506375,0.5457234949111204
0.002,1.7999,1.0,66.86357259177257,0.023912604641647087,1.3755541658739405,0.12922654839697997,0.2886488,0.5502521316796198
0.0025,1.79984375,1.0,117.01256668271272,0.029387683145945077,1.3730211672786297,0.18021540138840314,0.28864643749999996,0.5562984973280887
0.003,1.7997750000000001,1.0,185.36091590247557,0.034832050788961316,1.3703331468584015,0.23332137814746748,0.28864354999999997,0.5626701541388828
0.0035,1.79969375,1.0,264.470384220426,0.040245879833998355,1.3677816453542253,0.28650033302008937,0.2886401375,0.5686755782542693
0.004,1.7996,1.0,349.5136244541597,0.04562934157716745,1.3654287707489243,0.33825153999884583,0.2886362,0.5741767012402108
0.0045000000000000005,1.7994937500000001,1.0,438.00883871685676,0.05098260635466149,1.3632595974416097,0.3875591352584172,0.2886317375,0.5792170435795907
0.005,1.799375,1.0,528.5109942975712,0.05630584356573543,1.3612487762424725,0.4338141652110585,0.28862675,0.5838626328549618
0.0055,1.79924375,1.0,619.9780979320806,0.061599221616473465,1.3593754530483109,0.4767197792605481,0.2886212375,0.5881673588849532
0.006,1.7991000000000001,1.0,711.5832041045908,0.06686290796793584,1.3576235967049077,0.5162008022136015,0.2886152,0.5921727139025686
0.006500000000000001,1.79894375,1.0,802.6569890759549,0.07209706927349399,1.3559805163756773,0.5523293217971317,0.2886086375,0.5959115815079916
0.007,1.798775,1.0,892.6181476850707,0.07730187093981487,1.354436427378483,0.5852687351676729,0.28860155,0.5994094991938053
0.0075,1.79859375,1.0,981.0274628599872,0.08247747796157927,1.3529824981833347,0.6152325378877613,0.2885939375,0.602689272883457
0.008,1.7984,1.0,1067.5004061872717,0.08762405385125147,1.351611608700456,0.642457394058465,0.2885858,0.6057693769996093
0.0085,1.79819375,1.0,1151.7388848377873,0.09274176133455159,1.350317336110018,0.667184540599395,0.2885771375,0.6086663393519791
0.009000000000000001,1.797975,1.0,1233.538744761315,0.09783076283006362,1.3490935540294688,0.6896483900336011,0.28856795,0.6113956968592931
0.0095,1.79774375,1.0,1312.7234595977561,0.10289121900123904,1.3479351086419689,0.7100704305441153,0.2885582375,0.6139705362700936
0.01,1.7975,1.0,1389.1704737858474,0.10792328983177299,1.3468372207055357,0.7286555390568564,0.288548,0.6164028773382001
0.0105,1.79724375,1.0,1462.8163346829108,0.11292713463176707,1.34579527699668,0.7455905902507717,0.2885372375,0.6187041658379765
0.011,1.796975,1.0,1533.630886537627,0.11790291230741898,1.344805041841754,0.7610445638028298,0.28852595000000003,0.6208848313791653
0.0115,1.79669375,1.0,1601.5798317676677,0.12285077953076089,1.343862988887581,0.7751694295619258,0.2885141375,0.6229535869684291
0.012,1.7964,1.0,1666.6732585585828,0.1277708928965713,1.3429656062588555,0.7881009756599104,0.28850180000000003,0.6249189825366572
0.0125,1.79609375,1.0,1728.9480341667618,0.13266340807601273,1.3421095498346933,0.7999602506743556,0.2884889375,0.6267890813517331
0.013000000000000001,1.7957750000000001,1.0,1788.4651992521347,0.13752848112054092,1.34129161596941,0.8108549735733545,0.28847555,0.6285715333832551
0.0135,1.79544375,1.0,1845.2570359685444,0.14236626475505013,1.3405092786141355,0.8208811186928707,0.2884616375,0.6302724208471973
0.014,1.7951000000000001,1.0,1899.3817908561034,0.14717691170443467,1.3397600117200004,0.8301239405894387,0.2884472,0.6318977501148764
0.0145,1.79474375,1.0,1950.9180719620522,0.15196057442651964,1.339041325404151,0.8386592033331964,0.2884322375,0.633453379043994
0.015,1.794375,1.0,1999.9497663489103,0.15671740458190614,1.3383509016031618,0.846554325306078,0.28841675,0.6349447301796158
0.0155,1.79399375,1.0,2046.5683309279802,0.1614475538820935,1.3376865399076852,0.8538693390222615,0.2884007375,0.6363769157052785
0.016,1.7936,1.0,2090.8367902173186,0.16615117064120058,1.3370465077133926,0.8606578668114033,0.2883842,0.6377539911932588
0.0165,1.7931937500000001,1.0,2132.8314840942653,0.17082840317334608,1.336429072415955,0.8669677350008046,0.2883671375,0.6390799720450895
0.017,1.792775,1.0,2172.64094961353,0.17547939979264887,1.3358325014110437,0.8728416606398094,0.28834955,0.6403588360841879
0.0175,1.7923437500000001,1.0,2210.349436862996,0.1801043073532628,1.3352552179752597,0.878317896544107,0.2883314375,0.6415941926669679
0.018000000000000002,1.7919,1.0,2246.057124760672,0.18470327432406466,1.334695582606512,0.8834306972592355,0.2883128,0.6427897544122686
0.0185,1.79144375,1.0,2279.836379893473,0.1892764452525465,1.334152322000184,0.8882108914202167,0.2882936375,0.6439484237942772
0.019,1.790975,1.0,2311.7585429903347,0.19382396379886296,1.3336242437115946,0.8926862038513228,0.28827395,0.64507290818835
0.0195,1.79049375,1.0,2341.901299223966,0.19834597362316872,1.333110155296063,0.8968815908117295,0.2882537375,0.6461658942558446
0.02,1.79,1.0,2370.348143330827,0.20284261838561835,1.3326088643089087,0.900819553352687,0.288233,0.6472300490533737
0.0205,1.78949375,1.0,2397.1700727627494,0.2073140394760761,1.3321193509855966,0.9045204493240581,0.2882117375,0.6482676552962566
0.021,1.788975,1.0,2422.4586616780057,0.2117603815576061,1.3316404400554536,0.9080026610313744,0.28818995000000003,0.6492813090555648
0.021500000000000002,1.78844375,1.0,2446.273926766027,0.21618178381247818,1.331171301425983,0.911282912147333,0.2881676375,0.650272860688204
0.022,1.7879,1.0,2468.676187800859,0.22057838497247945,1.3307111339043163,0.9143763821443676,0.2881448,0.6512440877287035
0.0225,1.78734375,1.0,2489.72876374601,0.22495032376939703,1.3302591362975857,0.9172968650665234,0.28812143749999997,0.6521967566708313
0.023,1.786775,1.0,2509.497720232399,0.22929773893501806,1.3298145074129226,0.9200569151611104,0.28809755,0.6531326234055205
0.0235,1.78619375,1.0,2528.044460568434,0.233620767571536,1.3293765137835845,0.9226679871899969,0.28807313749999996,0.6540532913513144
0.024,1.7856,1.0,2545.434654844816,0.23791954848443717,1.3289444023553827,0.9251405345577353,0.2880482,0.6549603959153703
0.0245,1.78499375,1.0,2561.7270880573333,0.242194218599694,1.3285175036139079,0.9274841267042603,0.2880227375,0.6558553884543561
0.025,1.784375,1.0,2576.968258043449,0.24644491139906202,1.3280952791389766,0.929707544036252,0.28799675,0.6567394381591742
0.025500000000000002,1.78374375,1.0,2591.206078060787,0.2506717603642966,1.327677190510405,0.9318188346145596,0.2879702375,0.6576137079694124
0.026000000000000002,1.7831000000000001,1.0,2604.4897568120327,0.2548748989771534,1.3272626993080088,0.9338253851667357,0.2879432,0.6584793547246041
0.0265,1.78244375,1.0,2616.869684896275,0.2590544607193876,1.3268512671116044,0.9357339843475143,0.2879156375,0.6593375292969983
0.027,1.781775,1.0,2628.3911153225295,0.26321057734421416,1.3264424130448982,0.9375508872869696,0.28788755,0.6601892569050514
0.0275,1.7810937500000001,1.0,2639.098244714975,0.267343381439117,1.3260356745333313,0.9392818602232279,0.2878589375,0.6610355195522821
0.028,1.7804,1.0,2649.043554314561,0.27145300707091546,1.3256305201609628,0.9409322127747962,0.2878298,0.6618774373077194
0.0285,1.77969375,1.0,2658.260280049755,0.27553958202072193,1.3252266031241802,0.9425068727765898,0.2878001375,0.6627157417739382
0.029,1.778975,1.0,2666.7822450963245,0.2796032340696486,1.3248235766193703,0.9440103964568543,0.28776995,0.6635511609445155
0.029500000000000002,1.7782437500000001,1.0,2674.643808289357,0.2836440909988078,1.3244210938429208,0.9454470012455816,0.2877392375,0.6643844192275599
0.03,1.7775,1.0,2681.879815202973,0.2876622805893117,1.3240188079912185,0.9468205952950733,0.287708,0.6652162374615749
0.0305,1.77674375,1.0,2688.525551896255,0.2916579306222728,1.3236163722606509,0.9481348040779054,0.2876762375,0.6660473329236475
0.031,1.775975,1.0,2694.615435599953,0.29563116819836094,1.3232134514268066,0.9493929956321473,0.28764395,0.6668783954616433
0.0315,1.7751937500000001,1.0,2700.1769785274246,0.29958211764544873,1.3228097765745186,0.9505983082493382,0.2876111375,0.6677099749614457
0.032,1.7744,1.0,2705.246692522968,0.30351090900385647,1.3224049992343005,0.9517536542015896,0.2875778,0.6685427821069219
0.0325,1.77359375,1.0,2709.847120429248,0.30741766430686407,1.3219989009932624,0.952861759195358,0.2875439375,0.6693772568849846
0.033,1.772775,1.0,2714.001015086042,0.31130250558775163,1.3215912634385143,0.9539251643787314,0.28750955,0.67021383698986
0.0335,1.7719437500000002,1.0,2717.7313189187903,0.3151655548797991,1.3211818681571663,0.9549462410507288,0.2874746375,0.6710529578031653
0.034,1.7711000000000001,1.0,2721.0611445846866,0.31900693421628645,1.3207704967363283,0.9559272040318336,0.2874392,0.6718950523709477
0.0345,1.7702437500000001,1.0,2724.0137566763156,0.3228267656304937,1.3203569307631107,0.9568701238317517,0.2874032375,0.6727405513776771
0.035,1.7693750000000001,1.0,2726.6125544832544,0.32662517115570083,1.3199409518246235,0.9577769377352242,0.28736675,0.6735898831172002
0.035500000000000004,1.76849375,1.0,2728.8707359205123,0.33040226235529585,1.3195224353226098,0.9586494672556954,0.2873297375,0.674443282287974
0.036000000000000004,1.7676,1.0,2730.823533751992,0.33415817432465095,1.319101057224323,0.9594894045016411,0.2872922,0.6753013880048451
0.0365,1.76669375,1.0,2732.485796582905,0.33789302351877026,1.3186766796497276,0.960298351224586,0.2872541375,0.6761644574216356
0.037,1.765775,1.0,2733.871367498603,0.34160692533962234,1.3182491744569371,0.9610778117367704,0.28721555,0.6770327262674681
0.0375,1.76484375,1.0,2734.9941475115306,0.3452999951891754,1.3178184135040656,0.9618291992411037,0.2871764375,0.6779064286918328
0.038,1.7639,1.0,2735.8680885905105,0.3489723484693979,1.317384268649226,0.9625538423530641,0.28713679999999997,0.6787857972385073
0.0385,1.76294375,1.0,2736.507187054572,0.3526241005822582,1.3169466117505328,0.9632529910870091,0.28709663750000003,0.6796710628184215
0.039,1.761975,1.0,2736.9254773299663,0.35625536692972454,1.316505314666099,0.9639278223562309,0.28705595,0.6805624546814849
0.0395,1.7609937500000001,1.0,2737.137026072425,0.3598662629137654,1.3160602492540383,0.964579445031058,0.2870147375,0.6814602003873571
0.04,1.76,1.0,2737.155926652364,0.36345690393634905,1.3156112873724644,0.965208904594879,0.286973,0.6823645257751777
0.0405,1.7589937500000001,1.0,2736.9962940049736,0.36702740539944395,1.3151583008794907,0.965817187433964,0.2869307375,0.6832756549322463
0.041,1.757975,1.0,2736.6627006878857,0.3705778731468193,1.3147012484084886,0.9664052306071581,0.28688795,0.684193636001718
0.0415,1.75694375,1.0,2736.1761125952166,0.3741084310904001,1.3142399399084386,0.9669739098327611,0.2868446375,0.6851188143059341
0.042,1.7559,1.0,2735.546560319663,0.3776191903565409,1.313774284676362,0.9675240590864931,0.28680079999999997,0.6860513337877465
0.0425,1.75484375,1.0,2734.781556921004,0.38111025935240633,1.3133042149355771,0.9680564686720533,0.2867564375,0.6869912911466891
0.043000000000000003,1.753775,1.0,2733.8886217371655,0.3845817464851608,1.312829662909403,0.9685718865974732,0.28671155,0.6879387819004762
0.043500000000000004,1.75269375,1.0,2732.8752785862584,0.388033760161969,1.3123505608211579,0.9690710212596854,0.28666613750000003,0.6888939003657786
0.044,1.7516,1.0,2731.749054069509,0.39146640878999533,1.3118668408941607,0.9695545439328488,0.2866202,0.6898567396386998
0.0445,1.75049375,1.0,2730.5174759772226,0.39487980077640444,1.3113784353517297,0.970023091076577,0.2865737375,0.690827391574964
0.045,1.7493750000000001,1.0,2729.1880717953495,0.3982740445283609,1.3108852764171839,0.9704772664787517,0.28652675,0.6918059467698061
0.0455,1.74824375,1.0,2727.768367314747,0.40164924845302913,1.3103872963138414,0.9709176432462749,0.2864792375,0.6927924945375753
0.046,1.7471,1.0,2726.2658853420376,0.40500552095757375,1.3098844272650214,0.9713447656559224,0.2864312,0.6937871228910384
0.0465,1.7459437500000001,1.0,2724.683666910537,0.4083429559929016,1.3093766422296895,0.971759151920502,0.28638263750000004,0.6947898381463096
0.047,1.744775,1.0,2723.032598004608,0.41166167565587736,1.3088638427760715,0.972161293290601,0.28633355,0.6958007864336677
0.0475,1.74359375,1.0,2721.318890794096,0.414961788846645,1.3083459729268032,0.9725516582987955,0.28628393750000003,0.6968200286346402
0.048,1.7424,1.0,2719.5463028644076,0.41824339651888615,1.3078229990074084,0.972930693381838,0.2862338,0.6978475806188937
0.0485,1.74119375,1.0,2717.718589012032,0.42150659962628245,1.3072948873434116,0.9732988236157439,0.2861831375,0.6988834573105867
0.049,1.739975,1.0,2715.8395008527655,0.4247514991225155,1.3067616042603367,0.9736564539306828,0.28613195,0.6999276726773742
0.0495,1.73874375,1.0,2713.9127864556963,0.4279781959612669,1.3062231160837083,0.974003970246062,0.2860802375,0.7009802397193358
0.05,1.7375,1.0,2711.9421900019806,0.4311867910962183,1.3056793891390508,0.9743417405317204,0.286028,0.702041170457834
0.0505,1.73624375,1.0,2709.9314514687503,0.4343773854810513,1.3051303897518878,0.9746701158006675,0.2859752375,0.7031104759243019
0.051000000000000004,1.734975,1.0,2707.8843063385607,0.43755008006944757,1.3045760842477439,0.9749894310383518,0.28592195,0.7041881661489517
0.051500000000000004,1.73369375,1.0,2705.804485333292,0.4407049758150886,1.3040164389521431,0.9753000060730433,0.2858681375,0.7052742501494191
0.052000000000000005,1.7324,1.0,2703.695714173847,0.44384217367165607,1.30345142019061,0.9756021463915495,0.2858138,0.7063687359193299
0.0525,1.73109375,1.0,2701.5617133647606,0.4469617745928316,1.3028809942886685,0.9758961439041421,0.28575893750000003,0.707471630416797
0.053,1.729775,1.0,2699.406198003592,0.45006387953229676,1.302305127571843,0.9761822776622705,0.28570355000000003,0.7085829395528437
0.0535,1.72844375,1.0,2697.2337091106747,0.45314855427762146,1.301723778762614,0.976460810511312,0.2856476375,0.7097026828099784
0.054,1.7271,1.0,2695.046237183363,0.4562159434891021,1.3011369298498823,0.9767320032622265,0.2855912,0.7108308338028926
0.0545,1.7257437500000001,1.0,2692.845266818283,0.45926614021796475,1.3005445674243359,0.9769961006556563,0.2855342375,0.7119673564786952
0.055,1.724375,1.0,2690.6322884955607,0.46229923688485486,1.2999466780020044,0.977253336975616,0.28547675,0.7131122141440112
0.0555,1.72299375,1.0,2688.4087903734653,0.4653153259104177,1.2993432480989175,0.9775039366438888,0.2854187375,0.7142653693162944
0.056,1.7216,1.0,2686.1762582550023,0.4683144997152986,1.2987342642311053,0.9777481147141774,0.2853602,0.7154267837190695
0.0565,1.72019375,1.0,2683.9361755585355,0.471296850720143,1.2981197129145974,0.977986077337572,0.28530113749999997,0.7165964182771621
0.057,1.718775,1.0,2681.6900232929966,0.47426247134559607,1.297499580665424,0.9782180222012241,0.28524155,0.7177742331119162
0.0575,1.71734375,1.0,2679.43928003598,0.47721145401230336,1.2968738539996145,0.97844413894197,0.2851814375,0.7189601875364017
0.058,1.7159,1.0,2677.1854219170823,0.48014389114091005,1.2962425194331992,0.9786646095365246,0.2851208,0.7201542400506078
0.0585,1.71444375,1.0,2674.929922604646,0.48305987515206156,1.2956055634822077,0.9788796086697472,0.2850596375,0.7213563483366279
0.059000000000000004,1.7129750000000001,1.0,2672.674253296441,0.4859594984664032,1.29496297266267,0.9790893040823766,0.28499795,0.7225664692538298
0.059500000000000004,1.71149375,1.0,2670.419882714865,0.48884285350458034,1.2943147334906155,0.9792938568995313,0.2849357375,0.7237845588340177
0.06,1.71,1.0,2668.1682771054284,0.49171003268723823,1.2936608324820749,0.9794934219411782,0.284873,0.7250105722765777
0.0605,1.7084937500000001,1.0,2665.9209002403713,0.4945611284350224,1.2930012561530773,0.9796881480156956,0.2848097375,0.7262444639436187
0.061,1.7069750000000001,1.0,2663.6792134251145,0.49739623316857806,1.2923359910196528,0.9798781781975694,0.28474595,0.727486187355094
0.0615,1.7054437500000001,1.0,2661.444675509353,0.5002154393085506,1.2916650235978313,0.9800636500901958,0.2846816375,0.7287356951839175
0.062,1.7039,1.0,2659.2193914565096,0.5030187746593754,1.2909883344311397,0.9802446908077184,0.2846168,0.7299929503347934
0.0625,1.70234375,1.0,2657.0024988354253,0.5058064076308498,1.2903059313688274,0.9804214348132363,0.2845514375,0.7312578641966763
0.063,1.7007750000000001,1.0,2654.7941603049153,0.5085784263549953,1.2896178128256874,0.9805940049679122,0.28448555,0.7325303650958708
0.0635,1.69919375,1.0,2652.5946180322812,0.5113349134862497,1.2889239764810714,0.9807625191424044,0.28441913750000003,0.7338103820611139
0.064,1.6976,1.0,2650.4041138015864,0.5140759516790511,1.2882244200143305,0.9809270908807237,0.2843522,0.7350978434547284
0.0645,1.69599375,1.0,2648.222889018065,0.5168016235878373,1.2875191411048166,0.9810878295890054,0.2842847375,0.7363926769717748
0.065,1.694375,1.0,2646.0511847114585,0.5195120118670464,1.2868081374318812,0.9812448407147094,0.28421675,0.7376948096392065
0.0655,1.69274375,1.0,2643.889241540406,0.5222071991711165,1.2860914066748756,0.9813982259167999,0.2841482375,0.7390041678150221
0.066,1.6911,1.0,2641.7372997965044,0.5248872681544852,1.2853689465131517,0.9815480832274217,0.2840792,0.740320677187417
0.0665,1.6894437500000001,1.0,2639.5955994086457,0.5275523014715907,1.284640754626061,0.9816945072055528,0.2840096375,0.7416442627739368
0.067,1.687775,1.0,2637.4643799471855,0.530202381776871,1.283906828692955,0.9818375890830878,0.28393955,0.7429748489206287
0.0675,1.68609375,1.0,2635.3438806288145,0.5328375917247639,1.2831671663931847,0.981977416903771,0.2838689375,0.744312359301194
0.068,1.6844000000000001,1.0,2633.2343403208642,0.5354580139697075,1.2824217654061025,0.9821140756553818,0.2837978,0.7456567169161366
0.0685,1.68269375,1.0,2631.135997546193,0.5380637311661397,1.2816706234110595,0.982247647395539,0.2837261375,0.7470078440919168
0.069,1.680975,1.0,2629.0490904881185,0.5406548259684985,1.2809137380874074,0.9823782113714793,0.28365395,0.7483656624801005
0.0695,1.67924375,1.0,2626.9738569952515,0.5432313810312217,1.2801511071144978,0.9825058441341303,0.28358123749999997,0.749730093056509
0.07,1.6775,1.0,2624.9105345868597,0.5457934790087475,1.2793827281716819,0.9826306196467953,0.283508,0.7511010561203704
0.07050000000000001,1.67574375,1.0,2622.859360457878,0.5483412025555139,1.2786085989383114,0.9827526093887309,0.2834342375,0.7524784712934668
0.07100000000000001,1.673975,1.0,2620.820571484123,0.5508746343259586,1.2778287170937381,0.982871882453895,0.28335995,0.7538622575192846
0.07150000000000001,1.67219375,1.0,2618.7944042282174,0.5533938569745197,1.2770430803173132,0.9829885056451186,0.2832851375,0.7552523330621644
0.07200000000000001,1.6704,1.0,2616.7810949448226,0.5558989531556352,1.2762516862883884,0.9831025435639446,0.2832098,0.7566486155064472
0.0725,1.66859375,1.0,2614.780950327776,0.558389993564118,1.2754545320293484,0.9832140579626877,0.2831339375,0.7580510229097343
0.073,1.6667750000000001,1.0,2612.794034640021,0.560867018501255,1.2746516168111102,0.98332310692135,0.28305755,0.7594594686959283
0.0735,1.66494375,1.0,2610.819524263848,0.5633301740993272,1.2738429481561955,0.9834297531313914,0.2829806375,0.7608738512280715
0.074,1.6631,1.0,2608.8571883024606,0.5657795333252084,1.2730285280884956,0.9835340528204979,0.2829032,0.7622940779650177
0.0745,1.6612437500000001,1.0,2606.906796262275,0.5682151691457726,1.2722083586319028,0.9836360604265884,0.2828252375,0.7637200557746344
0.075,1.659375,1.0,2604.9681180487382,0.5706371545278941,1.2713824418103086,0.9837358286648168,0.28274675,0.7651516909345488
0.0755,1.65749375,1.0,2603.0409239612195,0.5730455624384466,1.2705507796476045,0.9838334085916447,0.2826677375,0.7665888891328869
