Time [s],Phi [rad],STIM [ ],Fsee [N],Gamma [ ],Lcerel [ ],q [ ],Lmtc [m],fisomrel [ ]
0.0,1.8,1.0,17.96645563003088,1.045785687113963e-05,1.379339824928191,0.005000029137893145,0.288653,0.5411393406359994
0.0005,1.79999375,1.0,18.276006719809413,0.005619608505359383,1.3793024697040337,0.012941787086628073,0.2886527375,0.5412297081518515
0.001,1.799975,1.0,21.618005376007766,0.011197296253629137,1.3789383405352986,0.035610968811570595,0.28865195,0.5421101214041903
0.0015,1.79994375,1.0,31.06949685861753,0.016743697584536185,1.3780461815051273,0.07060498202931968,0.2886506375,0.5442636627850522
0.002,1.7999,1.0,53.583814848787235,0.022258987989282938,1.3763680391105668,0.1147217182297991,0.2886488,0.5483006987757234
0.0025,1.79984375,1.0,97.1218466843601,0.027743341974987963,1.3739350270810187,0.16457889593381292,0.28864643749999996,0.554121796944891
0.003,1.7997750000000001,1.0,160.96236744379885,0.03319693307239683,1.3712141865239835,0.2172845815346924,0.28864354999999997,0.5605868230973763
0.0035,1.79969375,1.0,237.68831093978739,0.03861993383547789,1.3685845808553636,0.2706169917379582,0.2886401375,0.5667902001137626
0.004,1.7996,1.0,321.47224104430484,0.04401251585220352,1.3661559475251774,0.32291977327635524,0.2886362,0.5724803000380725
0.0045000000000000005,1.7994937500000001,1.0,409.2735607602253,0.04937484974973474,1.3639226777848985,0.37303827689048435,0.2886317375,0.5776794789345311
0.005,1.799375,1.0,499.4195406549582,0.05470710518551612,1.3618582140723494,0.42025098696727653,0.28862675,0.5824573753455669
0.0055,1.79924375,1.0,590.7965949854166,0.060009450894698085,1.3599387143381534,0.46417696310443046,0.2886212375,0.5868753887774146
0.006,1.7991000000000001,1.0,682.5243707766908,0.06528205463339447,1.358146300913012,0.5046829628051196,0.2886152,0.5909796783875202
0.006500000000000001,1.79894375,1.0,773.8877839869916,0.07052508323516031,1.3564671422122592,0.5418035020366921,0.2886086375,0.5948060475861767
0.007,1.798775,1.0,864.2922364050613,0.07573870258845733,1.3548902912089709,0.5756792811667194,0.28860155,0.5983829120076909
0.0075,1.79859375,1.0,953.2490712820148,0.08092307765905576,1.3534066891219296,0.6065121955882429,0.2885939375,0.6017337757776652
0.008,1.7984,1.0,1040.365047515366,0.08607837249047798,1.3520085492772314,0.6345341240765903,0.2885858,0.6048787666955964
0.0085,1.79819375,1.0,1125.3280173383698,0.09120475019636155,1.3506890462858787,0.6599862545311759,0.2885771375,0.607835436272643
0.009000000000000001,1.797975,1.0,1207.893134453645,0.09630237296610322,1.3494421313276768,0.6831060035196732,0.28856795,0.6106192501695495
0.0095,1.79774375,1.0,1287.8645727825276,0.10137140143874795,1.348262489463048,0.7041192705842139,0.2885582375,0.6132437450031902
0.01,1.7975,1.0,1365.1690808692592,0.10641199795767413,1.3471443591676688,0.7232356699211799,0.288548,0.6157231948280247
0.0105,1.79724375,1.0,1439.6807132013012,0.1114243206225979,1.3460836808788252,0.740647857239113,0.2885372375,0.6180678757313887
0.011,1.796975,1.0,1511.3341516966655,0.11640852749748348,1.3450764078214723,0.7565302715255366,0.28852595000000003,0.6202878595823627
0.0115,1.79669375,1.0,1580.120161850121,0.12136477664629516,1.3441184932205643,0.7710397228134375,0.2885141375,0.6223930568354861
0.012,1.7964,1.0,1646.0595776815064,0.12629322533680865,1.3432061349123539,0.7843165922257888,0.28850180000000003,0.6243926943830458
0.0125,1.79609375,1.0,1709.1798488676138,0.13119402976553274,1.3423359673189827,0.7964862304971112,0.2884889375,0.6262949154329605
0.013000000000000001,1.7957750000000001,1.0,1769.5039433293111,0.13606734433349194,1.3415051022294415,0.8076603614084756,0.28847555,0.628106712854779
0.0135,1.79544375,1.0,1827.0820597412287,0.1409133231844618,1.3407107002732808,0.8179382956509033,0.2884616375,0.629834881120187
0.014,1.7951000000000001,1.0,1881.9847958294226,0.1457321198062194,1.3399500116203271,0.8274082896562992,0.2884472,0.6314859362223835
0.0145,1.79474375,1.0,1934.292112675663,0.15052388771289127,1.3392204613839316,0.8361488191854993,0.2884322375,0.6330659393446192
0.015,1.794375,1.0,1984.061182933639,0.1552887773644133,1.338519956656089,0.8442298024757596,0.28841675,0.6345798435764018
0.0155,1.79399375,1.0,2031.367426714236,0.1600269392207213,1.3378464045287948,0.8517134362014749,0.2884007375,0.636032547662519
0.016,1.7936,1.0,2076.298304292736,0.16473852332118483,1.337197760514744,0.8586551222860292,0.2883842,0.6374287956117389
0.0165,1.7931937500000001,1.0,2118.9439824564624,0.1694236791912049,1.3365721072832568,0.865104296370012,0.2883671375,0.6387730121138644
0.017,1.792775,1.0,2159.400617517547,0.1740825564620991,1.3359676014436124,0.8711051176971787,0.28834955,0.6400694221308229
0.0175,1.7923437500000001,1.0,2197.734743457545,0.17871530105643077,1.335382819122873,0.8766971845103135,0.2883314375,0.6413213158073798
0.018000000000000002,1.7919,1.0,2234.022264737602,0.18332205889676328,1.3348163364481005,0.8819159534175348,0.2883128,0.6425319542330115
0.0185,1.79144375,1.0,2268.347677899159,0.18790297590566002,1.3342667295463573,0.8867932231221985,0.2882936375,0.6437045711683114
0.019,1.790975,1.0,2300.795666488481,0.19245819705140665,1.333732650496058,0.8913575764190501,0.28827395,0.6448422129874871
0.0195,1.79049375,1.0,2331.455912597932,0.19698786779033098,1.3332127707280426,0.8956347356895484,0.2882537375,0.6459478616828475
0.02,1.79,1.0,2360.4081643583063,0.2014921319325662,1.3327059203992058,0.8996479184323083,0.288233,0.647024140724864
0.0205,1.78949375,1.0,2387.7163403465524,0.20597113056202976,1.3322111356400206,0.9034181266380295,0.2882117375,0.6480732186121424
0.021,1.788975,1.0,2413.4487984040043,0.21042500476263895,1.3317274525809604,0.9069643471409266,0.28818995000000003,0.6490972487377127
0.021500000000000002,1.78844375,1.0,2437.677967449179,0.21485389561831125,1.3312539073524983,0.9103037726085338,0.2881676375,0.6500983701010922
0.022,1.7879,1.0,2460.4753804755865,0.21925794332467963,1.3307895803097711,0.913452004383095,0.2881448,0.6510786146635379
0.0225,1.78734375,1.0,2481.911458557605,0.22363728796445945,1.3303335940171481,0.916423222381167,0.28812143749999997,0.6520399128307206
0.023,1.786775,1.0,2502.0586966519354,0.2279920700181214,1.3298850793631245,0.9192303284128591,0.28809755,0.6529841658596462
0.0235,1.78619375,1.0,2520.969470052219,0.23232242547891058,1.3294433828192307,0.9218851153879642,0.28807313749999996,0.6539128109586155
0.024,1.7856,1.0,2538.6982629105646,0.23662849034007197,1.3290078508569971,0.9243983428574314,0.2880482,0.6548272770231504
0.0245,1.78499375,1.0,2555.301492382775,0.2409104005948507,1.3285778299479547,0.9267798417919907,0.2880227375,0.6557289849065464
0.025,1.784375,1.0,2570.837342243475,0.24516829223649178,1.3281526665636336,0.9290386074676346,0.28799675,0.656619347663191
0.025500000000000002,1.78374375,1.0,2585.3569081450064,0.2494022991889602,1.32773178840949,0.9311828945729026,0.2879702375,0.6574996009755018
0.026000000000000002,1.7831000000000001,1.0,2598.9176027796125,0.25361255783447706,1.3273145771184502,0.933220270220741,0.2879432,0.6583710701714608
0.0265,1.78244375,1.0,2611.572410559111,0.2577992027274922,1.3269004675242513,0.9351576939706971,0.2879156375,0.6592349627947256
0.027,1.781775,1.0,2623.360047694665,0.26196236435725495,1.3264890371501772,0.9370015880895551,0.28788755,0.6600921831018821
0.0275,1.7810937500000001,1.0,2634.3201172536856,0.26610217321301455,1.3260798635195115,0.93875786732121,0.2878589375,0.660943630762426
0.028,1.7804,1.0,2644.493033164009,0.27021875978402016,1.325672524155538,0.9404319857046942,0.2878298,0.6617902009252568
0.0285,1.77969375,1.0,2653.919948176223,0.274312254559521,1.3252665965815411,0.9420289785065961,0.2878001375,0.6626327842737915
0.029,1.778975,1.0,2662.6426857828637,0.2783827880287664,1.3248616583208044,0.9435534998308089,0.28776995,0.6634722670696969
0.029500000000000002,1.7782437500000001,1.0,2670.6942751779993,0.2824304866746699,1.3244573732829614,0.9450098667737222,0.2877392375,0.6643093524308706
0.03,1.7775,1.0,2678.122198417087,0.286455483928362,1.3240532772872118,0.9464020638364949,0.287708,0.66514500471753
0.0305,1.77674375,1.0,2684.9576001529576,0.2904579065087375,1.323649060642758,0.9477338042166514,0.2876762375,0.6659798646207282
0.031,1.775975,1.0,2691.227253674302,0.2944378790883717,1.323244457180063,0.9490085399074744,0.28764395,0.6668144799182603
0.0315,1.7751937500000001,1.0,2696.9582581040636,0.2983955263398401,1.3228392007295895,0.9502294787923851,0.2876111375,0.6676493956386474
0.032,1.7744,1.0,2702.178008153432,0.3023309729357181,1.3224330251218004,0.9513996049245323,0.2875778,0.6684851540523101
0.0325,1.77359375,1.0,2706.9141654466475,0.30624434354858104,1.3220256641871584,0.9525216968866591,0.2875439375,0.6693222946582255
0.033,1.772775,1.0,2711.194631416076,0.3101357628510044,1.3216168517561266,0.9535983444335684,0.28750955,0.670161354166064
0.0335,1.771946457935404,1.0,2715.1878388788255,0.31400535151952963,1.3212062657946373,0.9546319561012268,0.287474751233287,0.6710029809128343
0.034,1.7711171858382413,1.0,2719.331246416441,0.3178532341850579,1.320794009070895,0.9556248297912803,0.2874399218052061,0.6718469507149956
0.0345,1.7702879137410787,1.0,2723.6243870448016,0.3216795391464335,1.3203804185901178,0.9565791391826691,0.2874050923771253,0.6726925618112911
0.035,1.769458641643916,1.0,2728.0541957719706,0.3254843845154477,1.319965616291663,0.9574968908600624,0.28737026294904444,0.6735395548185467
0.035500000000000004,1.7686293695467534,1.0,2732.6075744886675,0.3292678884038919,1.3195497241148877,0.9583799629889167,0.28733543352096363,0.6743876716138366
0.036000000000000004,1.7678000974495907,1.0,2737.2713888566973,0.3330301689235573,1.3191328639991484,0.9592301150132545,0.2873006040928828,0.6752366553434345
0.0365,1.766970825352428,1.0,2742.032465527013,0.33677134418623533,1.3187151578838021,0.9600489965162196,0.28726577466480196,0.6760862504308135
0.037,1.7661415532552653,1.0,2746.8775896881484,0.34049153230371726,1.318296727708206,0.9608381553242287,0.28723094523672116,0.6769362025836995
0.0375,1.7653122811581028,1.0,2751.793502943235,0.3441908513877944,1.317877695411717,0.961599044926955,0.2871961158086403,0.6777862588001775
0.038,1.76448300906094,1.0,2756.7669015178744,0.3478694195502581,1.317458182933692,0.9623330312777965,0.2871612863805595,0.6786361673738475
0.0385,1.7636537369637775,1.0,2761.7844347965024,0.3515273549028996,1.3170383122134877,0.963041399032754,0.2871264569524786,0.6794856778980329
0.039,1.7628244648666147,1.0,2766.841944743188,0.3551647669842473,1.3166181217659723,0.9637253478639178,0.2870916275243978,0.6803347097238137
0.0395,1.7619951927694522,1.0,2771.9240976523197,0.3587817817588305,1.3161977507740876,0.9643860201647303,0.287056798096317,0.6811829796090816
0.04,1.7611659206722894,1.0,2777.025729398795,0.36237851169144975,1.3157772462706572,0.9650244818077389,0.28702196866823615,0.6820303913830381
0.0405,1.7603366485751266,1.0,2782.1425305658495,0.3659550682103633,1.3153566474220166,0.9656417373326064,0.2869871392401553,0.6828768652000826
0.041,1.759507376477964,1.0,2787.270175806708,0.36951156274382946,1.314935993394502,0.9662387349588253,0.2869523098120745,0.6837223216346244
0.0415,1.7586781043808013,1.0,2792.404323779499,0.3730481067201065,1.314515323354449,0.9668163703331384,0.2869174803839937,0.6845666816812702
0.042,1.7578488322836388,1.0,2797.5406171164423,0.3765648115674528,1.314094676468194,0.9673754899903538,0.2868826509559128,0.6854098667549124
0.0425,1.757019560186476,1.0,2802.6746824274146,0.38006178871412666,1.3136740919020722,0.9679168945521917,0.286847821527832,0.6862517986907218
0.043000000000000003,1.7561902880893134,1.0,2807.8021303361984,0.38353914958838636,1.3132536088224196,0.9684413416864694,0.28681299209975114,0.6870923997440387
0.043500000000000004,1.7553610159921507,1.0,2812.9185555524014,0.38699700561849026,1.3128332663955722,0.9689495488468263,0.28677816267167033,0.6879315925901689
0.044,1.7545317438949881,1.0,2818.023607989467,0.3904354544451368,1.3124130673697265,0.9694421908582489,0.28674333324358947,0.6887693728846898
0.0445,1.7537024717978253,1.0,2823.1114876272654,0.3938546192618828,1.3119930631939123,0.969919915142673,0.28670850381550866,0.6896056394096921
0.045,1.7528731997006628,1.0,2828.1784517955034,0.39725461511398913,1.3115732867623084,0.9703833331552931,0.28667367438742786,0.6904403283677689
0.0455,1.7520439276035,1.0,2833.2237316541477,0.4006355458967282,1.3111537443224939,0.970833021639214,0.286638844959347,0.6912734291903448
0.046,1.7512146555063375,1.0,2838.2465562261923,0.40399751550537233,1.3107344421220475,0.971269528349346,0.2866040155312662,0.692104931374681
0.0465,1.7503853834091747,1.0,2843.2461524298337,0.40734062783519387,1.310315386408548,0.9716933737880086,0.2865691861031853,0.6929348244837805
0.047,1.7495561113120122,1.0,2848.2217451126817,0.41066498678146524,1.3098965834295744,0.9721050528206779,0.2865343566751045,0.693763098146291
0.0475,1.7487268392148494,1.0,2853.1725570859685,0.41397069623945876,1.3094780394327052,0.9725050361812125,0.28649952724702366,0.694589742056406
0.048,1.7478975671176866,1.0,2858.0978091603242,0.4172578601044469,1.3090597606655194,0.9728937718750911,0.28646469781894285,0.6954147459737623
0.0485,1.747068295020524,1.0,2862.9967201817476,0.4205265822717018,1.308641753375596,0.9732716864884602,0.28642986839086204,0.6962380997233346
0.049,1.7462390229233613,1.0,2867.86850706898,0.42377696663649606,1.3082240238105136,0.9736391864101275,0.2863950389627812,0.6970597931953315
0.0495,1.7454097508261988,1.0,2872.7123848516076,0.42700911709410194,1.3078065782178512,0.9739966589730441,0.2863602095347003,0.6978798163450826
0.05,1.744580478729036,1.0,2877.5275667089345,0.4302231375397918,1.3073894228451872,0.9743444735212587,0.2863253801066195,0.6986981591929295
0.0505,1.7437512066318734,1.0,2882.313264009378,0.433419131868838,1.306972563940101,0.9746829824078482,0.2862905506785387,0.699514811824109
0.051000000000000004,1.7429219345347107,1.0,2887.0702968411815,0.4365971748116361,1.306555993516508,0.9750125177613014,0.28625572125045784,0.7003297922165391
0.051500000000000004,1.7420926624375481,1.0,2891.7977178211504,0.43975739773611067,1.3061397192279176,0.9753334040040279,0.28622089182237703,0.7011430877265682
0.052000000000000005,1.7412633903403854,1.0,2896.4952087833167,0.4428999097546706,1.3057237431558542,0.9756459482134254,0.28618606239429617,0.7019546966542517
0.0525,1.7404341182432228,1.0,2901.1630640872136,0.4460248058352046,1.3053080619798931,0.975950442019148,0.28615123296621536,0.7027646278382709
0.053,1.73960484614606,1.0,2905.801579887363,0.4491321809456014,1.3048926723796093,0.9762471642758809,0.2861164035381345,0.7035728900804218
0.0535,1.7387755740488975,1.0,2910.4110541120262,0.4522221300537497,1.304477571034578,0.9765363817326724,0.2860815741100537,0.7043794921456745
0.054,1.7379463019517347,1.0,2914.9917864415893,0.45529474812753834,1.3040627546243746,0.9768183496616849,0.2860467446819729,0.7051844427622365
0.0545,1.7371170298545722,1.0,2919.5440782875676,0.45835013013485587,1.3036482198285744,0.9770933124491429,0.286011915253892,0.7059877506216128
0.055,1.7362877577574094,1.0,2924.0682327719505,0.4613883710435911,1.3032339633267525,0.9773615041510583,0.28597708582581116,0.7067894243786663
0.0555,1.7354584856602466,1.0,2928.5645547064623,0.46440956582163273,1.3028199817984838,0.9776231490161037,0.28594225639773035,0.7075894726516772
0.056,1.734629213563084,1.0,2933.033350571886,0.46741380943686944,1.3024062719233442,0.9778784619778379,0.28590742696964955,0.7083879040223993
0.0565,1.7337999414659213,1.0,2937.474928498419,0.47040119685719,1.3019928303809083,0.9781276491183128,0.2858725975415687,0.7091847270361223
0.057,1.7329706693687588,1.0,2941.889598245595,0.47337182305048314,1.3015796538507518,0.9783709081049524,0.2858377681134879,0.7099799502017243
0.0575,1.732141397271596,1.0,2946.2776711825118,0.47632578298463757,1.3011667390124495,0.9786084286024441,0.285802938685407,0.7107735819917319
0.058,1.7313121251744334,1.0,2950.6394602687888,0.47926317162754195,1.300754082545577,0.978840392661267,0.2857681092573262,0.7115656308423732
0.0585,1.7304828530772707,1.0,2954.975280034942,0.48218408394708506,1.3003416811297093,0.9790669750843546,0.28573327982924535,0.7123561051536353
0.059000000000000004,1.7296535809801081,1.0,2959.2854465641367,0.48508861491115557,1.2999295314444217,0.9792883437732893,0.28569845040116454,0.7131450132893165
0.059500000000000004,1.7288243088829454,1.0,2963.569983221757,0.48797682945260523,1.2995176327361233,0.9795046577322856,0.28566362097308373,0.7139323586739438
0.06,1.7279950367857828,1.0,2967.8293489166263,0.4908488078288183,1.299105980460422,0.9797160708850118,0.28562879154500287,0.7147181519541126
0.0605,1.72716576468862,1.0,2972.0646983412926,0.4937047058782207,1.2986945640286924,0.9799227369331424,0.285593962116922,0.7155024152414202
0.061,1.7263364925914573,1.0,2976.2763735603253,0.49654460814040174,1.298283379959428,0.9801247983873885,0.2855591326888412,0.7162851570152409
0.0615,1.7255072204942947,1.0,2980.4647181334585,0.49936859915495063,1.2978724247711217,0.9803223923768511,0.2855243032607604,0.7170663857173865
0.062,1.724677948397132,1.0,2984.6300770976486,0.5021767634614567,1.2974616949822664,0.9805156508930919,0.28548947383267953,0.7178461097521591
0.0625,1.7238486762999694,1.0,2988.7727969496823,0.5049691855995091,1.2970511871113553,0.9807047010213609,0.2854546444045987,0.7186243374863986
0.063,1.7230194042028066,1.0,2992.893225628703,0.5077459501086972,1.2966408976768813,0.9808896651597464,0.28541981497651786,0.7194010772495346
0.0635,1.722190132105644,1.0,2996.991712499698,0.5105071415286101,1.2962308231973374,0.981070661226963,0.28538498554843705,0.7201763373336347
0.064,1.7213608600084813,1.0,3001.0686083359465,0.5132528443988373,1.295820960191217,0.9812478028594482,0.2853501561203562,0.7209501259934517
0.0645,1.7205315879113188,1.0,3005.1242653034546,0.5159831432589679,1.2954113051770129,0.981421199598391,0.2853153266922754,0.7217224514464725
0.065,1.719702315814156,1.0,3009.1590369441496,0.5186981226485912,1.295001854673218,0.9815909570672754,0.2852804972641946,0.7224933218729641
0.0655,1.7188730437169935,1.0,3013.1732781600936,0.5213978671072965,1.2945926051983259,0.9817571771404873,0.2852456678361137,0.7232627454160183
0.066,1.7180437716198307,1.0,3017.167345198108,0.524082461174673,1.294183553270829,0.981919958103494,0.28521083840803285,0.7240307301815986
0.0665,1.717214499522668,1.0,3021.141595634117,0.52675198939031,1.2937746954092209,0.9820793948050752,0.28517600897995204,0.7247972842385826
0.067,1.7163852274255054,1.0,3025.096388358031,0.5294065362937967,1.2933660281319943,0.9822355788020553,0.28514117955187124,0.7255624156188072
0.0675,1.7155559553283426,1.0,3029.032083558972,0.5320461864247226,1.2929575479576423,0.9823885984969518,0.2851063501237904,0.7263261323171102
0.068,1.71472668323118,1.0,3032.94904271083,0.5346710243226767,1.2925492514046582,0.9825385392689407,0.28507152069570957,0.7270884422913716
0.0685,1.7138974111340173,1.0,3036.8476285576166,0.5372811345272482,1.2921411349915348,0.9826854835985014,0.2850366912676287,0.7278493534625569
0.069,1.7130681390368547,1.0,3040.7282050998338,0.5398766015780266,1.2917331952367652,0.9828295111860915,0.2850018618395479,0.7286088737147558
0.0695,1.712238866939692,1.0,3044.5911375802234,0.5424575100146012,1.2913254286588427,0.9829706990651762,0.28496703241146704,0.7293670108952218
0.07,1.7114095948425294,1.0,3048.4367924709904,0.545023944376561,1.29091783177626,0.9831091217099147,0.28493220298338623,0.7301237728144123
0.07050000000000001,1.7105803227453666,1.0,3052.265537459704,0.5475759892034954,1.2905104011075101,0.9832448511377954,0.2848973735553054,0.7308791672460254
0.07100000000000001,1.709751050648204,1.0,3056.0773378005165,0.550113697607923,1.2901031366384184,0.9833779553003663,0.28486254412722456,0.7316331955119617
