Time [s],Phi [rad],STIM [ ],Fsee [N],Gamma [ ],Lcerel [ ],q [ ],Lmtc [m],fisomrel [ ]
0.0,1.8,1.0,17.96639737149749,1.0162485653204215e-05,1.3793398314552279,0.005000027521420517,0.288653,0.5411393248454061
0.0005,1.79999375,1.0,18.275854364654553,0.005619314790940305,1.3793024866281023,0.012940967151018012,0.2886527375,0.5412296672121757
0.001,1.799975,1.0,21.61763608232538,0.01119700418671572,1.3789383782537021,0.035609430015755006,0.28865195,0.5421100302501728
0.0015,1.79994375,1.0,31.068660753424425,0.016743407155887107,1.378046252738599,0.07060287569232669,0.2886506375,0.544263491040508
0.002,1.7999,1.0,53.582044863530605,0.02225869918970918,1.3763681539375088,0.11471922359087552,0.2886488,0.5483004231558408
0.0025,1.79984375,1.0,97.11888844452018,0.027743054795351295,1.3739351696304867,0.16457618178336655,0.28864643749999996,0.5541214569943214
0.003,1.7997750000000001,1.0,160.958525859578,0.03319664750361088,1.3712143303171185,0.2172817812321532,0.28864354999999997,0.5605864826760627
0.0035,1.79969375,1.0,237.68397504723129,0.03861964986850721,1.3685847144115342,0.2706142062994864,0.2886401375,0.5667898861676269
0.004,1.7996,1.0,321.46763172786865,0.04401223347806312,1.3661560696077635,0.32291707603621606,0.2886362,0.5724800149534268
0.0045000000000000005,1.7994937500000001,1.0,409.2687906854159,0.04937456895948948,1.3639227897562678,0.3730357163755089,0.2886317375,0.5776792190561713
0.005,1.799375,1.0,499.4146763528953,0.054706825970279885,1.3618583174379912,0.42024859131949416,0.28862675,0.5824571368014859
0.0055,1.79924375,1.0,590.7916885617105,0.06000917324564246,1.359938810197472,0.4641747450564536,0.2886212375,0.5868751687296817
0.006,1.7991000000000001,1.0,682.5194596700258,0.06528177854173206,1.3581463901836102,0.5046809244002098,0.2886152,0.590979474484851
0.006500000000000001,1.79894375,1.0,773.8825419286632,0.0705248086919171,1.3564672316974082,0.5418016421590756,0.2886086375,0.594805844151742
0.007,1.798775,1.0,864.2872434640753,0.07573842958603591,1.3548903718607834,0.5756775843838203,0.28860155,0.5983827294659276
0.0075,1.79859375,1.0,953.2443045334279,0.08092280618813329,1.3534067624393158,0.6065106510206407,0.2885939375,0.6017336105298502
0.008,1.7984,1.0,1040.3608094884748,0.08607810253753051,1.3520086116735046,0.6345327168438744,0.2885858,0.6048786266189152
0.0085,1.79819375,1.0,1125.3215442618045,0.09120448176341486,1.350689137920414,0.6599849954000587,0.2885771375,0.6078352313285613
0.009000000000000001,1.797975,1.0,1207.8784609632346,0.09630210574847602,1.349442331824674,0.6831049220985929,0.28856795,0.6106188033448164
0.0095,1.79774375,1.0,1287.8713830402883,0.10137113638551902,1.3482623993442782,0.7041181390520449,0.2885582375,0.6132439451625209
0.01,1.7975,1.0,1365.1732640563328,0.10641173426016992,1.347144305402488,0.7232346557596826,0.288548,0.6157233138604085
0.0105,1.79724375,1.0,1439.672543592185,0.11142405798364129,1.3460837831271448,0.7406470078489136,0.2885372375,0.6180676500523068
0.011,1.796975,1.0,1511.3212315725762,0.11640826616714565,1.3450765656460888,0.7565295246613707,0.28852595000000003,0.6202875122509585
0.0115,1.79669375,1.0,1580.1106211634835,0.12136451684397163,1.344118607198978,0.7710390234289285,0.2885141375,0.6223928066946287
0.012,1.7964,1.0,1646.057198496086,0.12629296746038848,1.3432061627602923,0.7843159173336371,0.28850180000000003,0.6243926334290681
0.0125,1.79609375,1.0,1709.1708063342878,0.13119377325263493,1.3423360711875612,0.7964856437903678,0.2884889375,0.626294688660284
0.013000000000000001,1.7957750000000001,1.0,1769.4880944016022,0.13606708907119205,1.3415052811509156,0.8076598539804916,0.28847555,0.6281063231697516
0.0135,1.79544375,1.0,1827.0617494440794,0.14091306910548757,1.3407109259183438,0.8179378489740321,0.2884616375,0.6298343908158954
0.014,1.7951000000000001,1.0,1881.9741992553115,0.1457318678396577,1.3399501276169683,0.8274078415318059,0.2884472,0.6314856847359916
0.0145,1.79474375,1.0,1934.2824715308489,0.15052363702523203,1.3392205654850737,0.836148402323307,0.2884322375,0.633065714132611
0.015,1.794375,1.0,1984.049579717893,0.1552885277012678,1.3385200803615436,0.8442294241721684,0.28841675,0.634579576505147
0.0155,1.79399375,1.0,2031.3571237542596,0.16002669090682237,1.3378465130852615,0.8517130819655617,0.2884007375,0.6360323137631705
0.016,1.7936,1.0,2076.289612247504,0.16473827644135286,1.3371978511015477,0.8586547890014087,0.2883842,0.6374286008051611
0.0165,1.7931937500000001,1.0,2118.948091771385,0.16942343480947913,1.336572064889993,0.8651039483600381,0.2883671375,0.6387731031112447
0.017,1.792775,1.0,2159.4002498585573,0.17408231305446098,1.3359676052008267,0.871104806282499,0.28834955,0.6400694140804255
0.0175,1.7923437500000001,1.0,2197.7233409535943,0.17871505812471533,1.335382934627807,0.8766969246814444,0.2883314375,0.6413210687514035
0.018000000000000002,1.7919,1.0,2234.0044172955936,0.18332181696865918,1.3348165157646923,0.8819157287297255,0.2883128,0.6425315713367078
0.0185,1.79144375,1.0,2268.321264158087,0.1879027347018336,1.3342669929148077,0.8867930358434428,0.2882936375,0.6437040097184055
0.019,1.790975,1.0,2300.780420370897,0.192457958909683,1.3337328014374452,0.8913573761723487,0.28827395,0.644841891724218
0.0195,1.79049375,1.0,2331.447341888992,0.19698763220014395,1.333212855020928,0.8956345337810554,0.2882537375,0.6459476825535782
0.02,1.79,1.0,2360.3912226250854,0.2014918969850493,1.332706085996197,0.899647748052937,0.288233,0.6470237893529693
0.0205,1.78949375,1.0,2387.6863917512246,0.2059708956762319,1.3322114266941942,0.9034179951624838,0.2882117375,0.648072601957296
0.021,1.788975,1.0,2413.4118807715245,0.2104247706855246,1.3317278094458616,0.906964239291106,0.28818995000000003,0.6490964937507977
0.021500000000000002,1.78844375,1.0,2437.634204445048,0.2148536619235511,1.3312543282809561,0.9103036860215061,0.2881676375,0.6500974808518257
0.022,1.7879,1.0,2460.4415416992974,0.21925771281771025,1.3307899042717242,0.9134519061637079,0.2881448,0.6510779312241823
0.0225,1.78734375,1.0,2481.8893873034162,0.22363706093364805,1.330333804405753,0.9164231098974377,0.28812143749999997,0.6520394696008344
0.023,1.786775,1.0,2502.035516413114,0.22799184377297893,1.329885299431452,0.9192302246496973,0.28809755,0.6529837028667769
0.0235,1.78619375,1.0,2520.9401536572223,0.23232219883731736,1.3294436600972304,0.9218850279955333,0.28807313749999996,0.6539122283856522
0.024,1.7856,1.0,2538.6657649600597,0.23662826362827782,1.329008157151497,0.9243982658220332,0.2880482,0.6548266343360202
0.0245,1.78499375,1.0,2555.2682552445035,0.24091017348788574,1.328578142189969,0.926779770146849,0.2880227375,0.6557283305962646
0.025,1.784375,1.0,2570.8111226248366,0.24516806686797268,1.3281529121349036,0.9290385293916914,0.28799675,0.6566188337288974
0.025500000000000002,1.78374375,1.0,2585.346202912053,0.24940207869590977,1.3277318883919218,0.9311827986201007,0.2879702375,0.6574993919995693
0.026000000000000002,1.7831000000000001,1.0,2598.9170507169306,0.25361234119176607,1.3273145822610126,0.9332201650515034,0.2879432,0.6583710594365395
0.0265,1.78244375,1.0,2611.568373155525,0.25779898657561057,1.3269005050421643,0.9351575987154387,0.2879156375,0.6592348845764602
0.027,1.781775,1.0,2623.345931049746,0.2619621470675124,1.3264891680353657,0.9370015109371357,0.28788755,0.6600919105726237
0.0275,1.7810937500000001,1.0,2634.2964454219577,0.26610195488754057,1.3260800825406056,0.938757806568759,0.2878589375,0.6609431752879842
0.028,1.7804,1.0,2644.4627165857264,0.2702185407312273,1.325672804116574,0.9404319366089188,0.2878298,0.6617896194478561
0.0285,1.77969375,1.0,2653.8840895409876,0.27431203500194806,1.325266927132706,0.9420289390565926,0.2878001375,0.6626320985766803
0.029,1.778975,1.0,2662.612634529802,0.2783825718278867,1.324861934884229,0.943553456304683,0.28776995,0.6634716940793207
0.029500000000000002,1.7782437500000001,1.0,2670.6783882504465,0.28243027759637634,1.3244575192705217,0.9450098101750353,0.2877392375,0.6643090503469995
0.03,1.7775,1.0,2678.1118562684237,0.28645527869475,1.324053372190963,0.9464020041627584,0.287708,0.665144808583116
0.0305,1.77674375,1.0,2684.9439715674794,0.2904577015103409,1.3236491855449315,0.9477337509229146,0.2876762375,0.6659796068115513
0.031,1.775975,1.0,2691.206055205052,0.294437672430482,1.3232446512318063,0.9490084970592216,0.28764395,0.6668140798789155
0.0315,1.7751937500000001,1.0,2696.9297790724336,0.29839531784250645,1.3228394611509662,0.9502294455088357,0.2876111375,0.6676488594507456
0.032,1.7744,1.0,2702.1471307595543,0.3023307641337474,1.32243330720179,0.9513995757823356,0.2875778,0.6684845740016458
0.0325,1.77359375,1.0,2706.8839485390554,0.30624413350320134,1.3220259399916687,0.9525216680718653,0.2875439375,0.6693217282285784
0.033,1.772775,1.0,2711.173076359494,0.3101355549865274,1.3216170483441518,0.9535983083616175,0.28750955,0.6701609509387612
0.0335,1.7719437500000002,1.0,2715.0376584544415,0.3140051510749871,1.321206411551352,0.9546319177302904,0.2874746375,0.6710026823287739
0.034,1.7711000000000001,1.0,2718.4982103439925,0.3178530422607769,1.3207938344330188,0.955624759207872,0.2874392,0.6718473080030642
0.0345,1.7702437500000001,1.0,2721.5753967114724,0.32167934903609297,1.3203791218089016,0.9565789477974814,0.2874032375,0.6726952114443783
0.035,1.7693750000000001,1.0,2724.2900157928702,0.3254841918931317,1.3199620784987505,0.957496461888658,0.28736675,0.6735467739883911
0.035500000000000004,1.76849375,1.0,2726.6629846117535,0.32926769132408956,1.3195425093223148,0.9583791536640905,0.2873297375,0.6744023747959133
0.036000000000000004,1.7676,1.0,2728.715325057865,0.33302996782116284,1.319120219099344,0.9592287585990152,0.2872922,0.6752623908226615
0.0365,1.76669375,1.0,2730.464239694383,0.33677113775622636,1.3186950481938742,0.9600469068180373,0.2872541375,0.676127124543062
0.037,1.765775,1.0,2731.9265804047664,0.34049131798370685,1.3182668408406835,0.9608351286932713,0.28721555,0.6769968686903414
0.0375,1.76484375,1.0,2733.1308399889986,0.344190639409852,1.3178353361279873,0.9615948543062837,0.2871764375,0.6778721272589583
0.038,1.7639,1.0,2734.088917393312,0.3478692155881094,1.317400424437927,0.962327438750632,0.28713679999999997,0.6787530949190812
0.0385,1.76294375,1.0,2734.8127544588006,0.3515271600719268,1.3169619961526438,0.9630341566728501,0.28709663750000003,0.6796399649073069
0.039,1.761975,1.0,2735.314330614173,0.35516458641475174,1.316519941654279,0.9637162079205717,0.28705595,0.6805329290024611
0.0395,1.7609937500000001,1.0,2735.6056578365956,0.35878160817003196,1.3160741513249739,0.9643747227354361,0.2870147375,0.6814321775006299
0.04,1.76,1.0,2735.698775877368,0.36237833889121507,1.31562451554687,0.9650107665319513,0.286973,0.6823378991894249
0.0405,1.7589937500000001,1.0,2735.605747755236,0.36595489213174875,1.3151709247021082,0.9656253442993754,0.2869307375,0.6832502813214862
0.041,1.757975,1.0,2735.3386555150287,0.3695113814450806,1.3147132691728303,0.9662194046600183,0.28688795,0.684169509587212
0.0415,1.75694375,1.0,2734.9095962536985,0.37304792038465834,1.3142514393411773,0.9667938436140935,0.2868446375,0.6850957680867296
0.042,1.7559,1.0,2734.330678412252,0.3765646225039296,1.3137853255892904,0.9673495079983349,0.28680079999999997,0.6860292393010938
0.0425,1.75484375,1.0,2733.611430167179,0.3800615964269009,1.3133148418070677,0.9678871998221742,0.2867564375,0.6869700570899622
0.043000000000000003,1.753775,1.0,2732.7609195959085,0.38353895266219534,1.3128399061215352,0.9684076786898884,0.28671155,0.6879183454651436
0.043500000000000004,1.75269375,1.0,2731.792450329085,0.38699681136025676,1.3123603982154406,0.9689116622612305,0.28666613750000003,0.6888743036565415
0.044,1.7516,1.0,2730.7123032784225,0.3904352787030163,1.3118762615809378,0.9693998333430341,0.2866202,0.689838002111921
0.0445,1.75049375,1.0,2729.526761570657,0.3938544608724051,1.3113874397101815,0.969872839229088,0.2865737375,0.6908095101745475
0.045,1.7493750000000001,1.0,2728.242109309296,0.39725446405035436,1.3108938760953261,0.9703312938921196,0.28652675,0.6917888960664031
0.0455,1.74824375,1.0,2726.8646304074227,0.40063539441879503,1.3103955142285264,0.9707757800198367,0.2864792375,0.6927762268712011
0.046,1.7471,1.0,2725.400607491406,0.4039973581596584,1.3098922976019363,0.9712068509075236,0.2864312,0.693771568517197
0.0465,1.7459437500000001,1.0,2723.856320874835,0.4073404614548755,1.3093841697077107,0.9716250322185856,0.28638263750000004,0.6947749857597911
0.047,1.744775,1.0,2722.2380476038884,0.41066481048637754,1.3088710740380036,0.9720308236234275,0.28633355,0.6957865421639353
0.0475,1.74359375,1.0,2720.552060573521,0.41397051143609553,1.3083529540849699,0.9724247003261456,0.28628393750000003,0.696806300086328
0.048,1.7424,1.0,2718.8046277136023,0.4172576704859607,1.307829753340764,0.9728071144876997,0.2862338,0.6978343206574122
0.0485,1.74119375,1.0,2716.997246228328,0.420526380670314,1.3073014587092813,0.973178497951982,0.2861831375,0.6988705786835073
0.049,1.739975,1.0,2715.1343801256376,0.4237767484221623,1.3067680300573266,0.9735392618296835,0.28613195,0.6999151011949847
0.0495,1.73874375,1.0,2713.2278252473666,0.42700889854940993,1.3062293603701414,0.9738897954908946,0.2860802375,0.7009680447936675
0.05,1.7375,1.0,2711.2803897337058,0.4302229289998024,1.3056854244632081,0.9742304724291274,0.286028,0.7020294045623352
0.0505,1.73624375,1.0,2709.294878757371,0.43341893772108525,1.3051361971520086,0.9745616488904032,0.2859752375,0.7030991747053907
0.051000000000000004,1.734975,1.0,2707.2740943193353,0.436597022661004,1.3045816532520251,0.9748836648205034,0.28592195,0.7041773485403799
0.051500000000000004,1.73369375,1.0,2705.220835058036,0.439757281767304,1.3040217675787398,0.9751968447520851,0.2858681375,0.7052639184894731
0.052000000000000005,1.7324,1.0,2703.137896073002,0.44289981298773085,1.303456514947635,0.9755014986359742,0.2858138,0.7063588760709051
0.0525,1.73109375,1.0,2701.028068762777,0.44602471427002993,1.3028858701741926,0.9757979226206065,0.28575893750000003,0.7074622118903768
0.053,1.729775,1.0,2698.894140676145,0.4491320835619469,1.3023098080738948,0.9760863997832712,0.28570355000000003,0.7085739156324136
0.0535,1.72844375,1.0,2696.7388953782147,0.45222201881122714,1.3017283034622238,0.9763672008165285,0.2856476375,0.7096939760516843
0.054,1.7271,1.0,2694.5651123301936,0.45529461796561616,1.3011413311546618,0.9766405846729053,0.2855912,0.7108223809642804
0.0545,1.7257437500000001,1.0,2692.37556678317,0.45834997897285945,1.3005488659666908,0.9769067991707386,0.2855342375,0.7119591172389544
0.055,1.724375,1.0,2690.1730296859528,0.4613881997807025,1.2999508827137929,0.977166081563816,0.28547675,0.7131041707883179
0.0555,1.72299375,1.0,2687.9602676073314,0.4644093783368908,1.2993473562114506,0.9774186590772589,0.2854187375,0.7142575265599965
0.056,1.7216,1.0,2685.740042672011,0.4674136125891698,1.2987382612751457,0.9776647494119121,0.2853602,0.7154191685277513
0.0565,1.72019375,1.0,2683.5121411620967,0.4704009860339706,1.2981235999592293,0.9779045614772882,0.28530113749999997,0.7165890278933336
0.057,1.718775,1.0,2681.2769068458542,0.4733715946817541,1.2975033692091347,0.9781382964384404,0.28524155,0.7177670449911139
0.0575,1.71734375,1.0,2679.0399564794398,0.4763255553644645,1.2968775175867941,0.9783661463318688,0.2851814375,0.7189532511208633
0.058,1.7159,1.0,2676.802094505504,0.47926295735027885,1.2962460377389295,0.97858829544455,0.2851208,0.7201475928698493
0.0585,1.71444375,1.0,2674.5641240301707,0.482183889907374,1.2956089223122624,0.9788049206694247,0.2850596375,0.7213500161013482
0.059000000000000004,1.7129750000000001,1.0,2672.3268468206447,0.48508844230392706,1.2949661639535144,0.9790161918585514,0.28499795,0.7225604659520042
0.059500000000000004,1.71149375,1.0,2670.0910633044773,0.48797670380811486,1.2943177553094072,0.9792222721567018,0.2849357375,0.7237788868291835
0.06,1.71,1.0,2667.85757256938,0.49084876368811453,1.2936636890266626,0.9794233183166264,0.284873,0.7250052224083279
0.0605,1.7084937500000001,1.0,2665.6271723652762,0.49370471121210296,1.2930039577520023,0.9796194809971319,0.2848097375,0.7262394156303025
0.061,1.7069750000000001,1.0,2663.400659106512,0.49654463564825724,1.2923385541321477,0.9798109050450298,0.28474595,0.7274814086987416
0.0615,1.7054437500000001,1.0,2661.1788278755303,0.4993686262647542,1.291667470813821,0.9799977297619475,0.2846816375,0.7287311430773882
0.062,1.7039,1.0,2658.962472428641,0.502176772329771,1.2909907004437433,0.9801800891569228,0.2846168,0.7299885594874351
0.0625,1.70234375,1.0,2656.7523852013173,0.5049691631114844,1.2903082356686366,0.9803581121856385,0.2845514375,0.7312535979048576
0.063,1.7007750000000001,1.0,2654.5493573163353,0.5077458878780716,1.2896200691352226,0.9805319229771007,0.28448555,0.7325261975577451
0.0635,1.69919375,1.0,2652.3541785921425,0.5105070358977094,1.288926193490223,0.9807016410485078,0.28441913750000003,0.7338062969236296
0.064,1.6976,1.0,2650.167637552425,0.513252696438575,1.2882266013803594,0.9808673815090035,0.2843522,0.7350938337268094
0.0645,1.69599375,1.0,2647.9905214377163,0.515982958768845,1.2875212854523537,0.9810292552529749,0.2842847375,0.7363887449356702
0.065,1.694375,1.0,2645.8234374356493,0.5186978846285875,1.2868102400034802,0.9811873672745497,0.28421675,0.7376909637408995
0.0655,1.69274375,1.0,2643.6664906062333,0.5213975778974199,1.2860934639597403,0.9813418219881728,0.2841482375,0.7390004141566223
0.066,1.6911,1.0,2641.5198628161907,0.5240821458872157,1.2853709555361523,0.9814927202520874,0.2840792,0.7403170208430593
0.0665,1.6894437500000001,1.0,2639.383700001056,0.5267516691154335,1.2846427132774239,0.9816401575065339,0.2840096375,0.7416407072004665
0.067,1.687775,1.0,2637.258147893107,0.5294062280995316,1.2839087357282628,0.9817842258299726,0.28393955,0.7429713959731488
0.0675,1.68609375,1.0,2635.1433520247692,0.5320459033569687,1.2831690214333769,0.981925014079595,0.2838689375,0.7443090092489278
0.068,1.6844000000000001,1.0,2633.0394577310003,0.534670775405203,1.2824235689374741,0.9820626080249978,0.2837978,0.7456534684586091
0.0685,1.68269375,1.0,2630.946610152555,0.5372809247616932,1.2816723767852618,0.9821970904754052,0.2837261375,0.7470046943754513
0.069,1.680975,1.0,2628.864954238948,0.5398764319438977,1.280915443521448,0.9823285414007862,0.28365395,0.7483626071146305
0.0695,1.67924375,1.0,2626.7946347514644,0.5424573774692749,1.2801527676907407,0.9824570380472041,0.28358123749999997,0.7497271261327101
0.07,1.6775,1.0,2624.735796266436,0.5450238418552834,1.2793843478378475,0.9825826550467079,0.283508,0.7510981702271067
0.07050000000000001,1.67574375,1.0,2622.6885831783447,0.5475759056193815,1.278610182507476,0.9827054645220581,0.2834342375,0.7524756575355577
0.07100000000000001,1.673975,1.0,2620.6531397028134,0.550113649279028,1.2778302702443343,0.9828255361865652,0.28335995,0.7538595055355873
0.07150000000000001,1.67219375,1.0,2618.629609880215,0.552637153351681,1.2770446095931298,0.982942937439297,0.2832851375,0.7552496310439741
0.07200000000000001,1.6704,1.0,2616.618137578791,0.555146498354799,1.2762531990985708,0.9830577334559004,0.2832098,0.7566459502162162
0.0725,1.66859375,1.0,2614.6188664980364,0.5576417648058407,1.2754560373053647,0.9831699872752679,0.2831339375,0.7580483785459997
0.073,1.6667750000000001,1.0,2612.6319401721316,0.5601230332222644,1.2746531227582192,0.9832797598822602,0.28305755,0.7594568308646639
0.0735,1.66494375,1.0,2610.6575019732973,0.5625903841215287,1.2738444540018425,0.9833871102866967,0.2829806375,0.7608712213406656
0.074,1.6631,1.0,2608.695695115319,0.5650438980210921,1.273030029580942,0.983492095598795,0.2829032,0.7622914634790495
0.0745,1.6612437500000001,1.0,2606.746707904465,0.5674836419951123,1.272209847619373,0.9835947703212842,0.2828252375,0.7637174708515233
0.075,1.659375,1.0,2604.810250580325,0.5699096592710472,1.2713839106871931,0.98369518608786,0.28274675,0.7651491486611147
0.0755,1.65749375,1.0,2602.885550077105,0.5723220930612596,1.270552225857682,0.983793398663713,0.2826677375,0.7665863937610135
