Time [s],Phi [rad],STIM [ ],Fsee [N],Gamma [ ],Lcerel [ ],q [ ],Lmtc [m],fisomrel [ ]
0.0,1.8,1.0,18.000727344202396,0.0001864193740709294,1.379335987104317,0.005009050537802747,0.288653,0.5411486252793161
0.0005,1.79999375,1.0,18.367810604069597,0.0057945830176395745,1.3792922846480926,0.013437542738464741,0.2886527375,0.5412543456837702
0.001,1.799975,1.0,21.840480874907716,0.011371289297254523,1.3789156759023287,0.03653381308824026,0.28865195,0.5421648933529383
0.0015,1.79994375,1.0,31.573637943012063,0.016916714664820566,1.3780034034297017,0.0718643638793294,0.2886506375,0.544366795266461
0.002,1.7999,1.0,54.648784514912606,0.022431034580411784,1.3762992901992128,0.11621076056425662,0.2886488,0.5484657021542367
0.0025,1.79984375,1.0,98.89414295732266,0.02791442352088313,1.3738500117229357,0.1661973048729383,0.28864643749999996,0.5543245176491097
0.003,1.7997750000000001,1.0,163.25692409603874,0.03336705498606087,1.3711286041255073,0.21895323826021523,0.28864354999999997,0.5607894107138154
0.0035,1.79969375,1.0,240.27452438965733,0.038789101499621025,1.3685051349960433,0.27227598535350495,0.2886401375,0.5669769307447319
0.004,1.7996,1.0,324.2199356802877,0.04418073461945573,1.3660833270539579,0.32452565888020296,0.2886362,0.572649864965258
0.0045000000000000005,1.7994937500000001,1.0,412.1162854530687,0.04954212494299145,1.36385606414529,0.3745623551796297,0.2886317375,0.5778340707420238
0.005,1.799375,1.0,502.3181937607695,0.0548734420990585,1.3617967074245094,0.42167665400100823,0.28862675,0.5825993064310713
0.0055,1.79924375,1.0,593.719214960776,0.060174854786695924,1.359881684173718,0.46549676648516436,0.2886212375,0.5870062927177561
0.006,1.7991000000000001,1.0,685.4480758319061,0.06544653073990456,1.35809321277327,0.5058957728711013,0.2886152,0.5911009278243543
0.006500000000000001,1.79894375,1.0,776.791885306777,0.07068863674855241,1.356417613927951,0.5429123763307547,0.2886086375,0.5949186367407722
0.007,1.798775,1.0,867.1602383588346,0.07590133871764272,1.3548440023282042,0.5766897852020438,0.28860155,0.5984876722311907
0.0075,1.79859375,1.0,956.0640753021247,0.08108480146700163,1.3533634235019019,0.6074312767377742,0.2885939375,0.6018312848565548
0.008,1.7984,1.0,1043.1241604810994,0.08623918924073204,1.3519679539239193,0.6353691846855278,0.2885858,0.6049698960797507
0.0085,1.79819375,1.0,1128.0179444230257,0.09136466486319693,1.3506509897701813,0.6607448630572375,0.2885771375,0.6079205464706385
0.009000000000000001,1.797975,1.0,1210.5065300695019,0.09646139053448925,1.34940644157318,0.6837954244090954,0.28856795,0.6106987837601021
0.0095,1.79774375,1.0,1290.424518930221,0.1015295278789718,1.3482286309833875,0.7047461222922389,0.2885582375,0.6133189431232007
0.01,1.7975,1.0,1367.6288133366786,0.10656923679066958,1.347112759207415,0.7238065436178082,0.288548,0.6157931517710942
0.0105,1.79724375,1.0,1442.0333990683703,0.11158067663079625,1.3460542474465316,0.74116848619315,0.2885372375,0.6181328374496642
0.011,1.796975,1.0,1513.6097572914136,0.11656400677314234,1.3450486208806312,0.7570056234826552,0.28852595000000003,0.6203490090190513
0.0115,1.79669375,1.0,1582.3283623562281,0.12151938444322039,1.3440921220641378,0.7714743833299809,0.2885141375,0.6224509296345617
0.012,1.7964,1.0,1648.1836931586358,0.12644696598662572,1.3431812805464258,0.7847147997649598,0.28850180000000003,0.624447094013123
0.0125,1.79609375,1.0,1711.2051013697346,0.1313469073752137,1.3423127108338175,0.7968517498137645,0.2884889375,0.6263456887806226
0.013000000000000001,1.7957750000000001,1.0,1771.4482726999893,0.1362193644676583,1.3414831584112812,0.8079963942780963,0.28847555,0.6281545042138261
0.0135,1.79544375,1.0,1828.9612217269448,0.14106449130277796,1.3406898284233084,0.8182477042181003,0.2884616375,0.6298802321712267
0.014,1.7951000000000001,1.0,1883.7909918061814,0.14588244041226356,1.3399302446536767,0.8276937170108314,0.2884472,0.6315287907196796
0.0145,1.79474375,1.0,1936.0086650448711,0.15067336432780598,1.3392019308861636,0.8364126475051362,0.2884322375,0.6331060270506962
0.015,1.794375,1.0,1985.6871747030555,0.1554374145210543,1.3385026250328722,0.8444740933556701,0.28841675,0.6346172603503021
0.0155,1.79399375,1.0,2032.9320543938768,0.16017474329822187,1.3378299221252825,0.8519399244370846,0.2884007375,0.6360680603215101
0.016,1.7936,1.0,2077.810811765466,0.1648854995311242,1.3371820003424089,0.8588654228747432,0.2883842,0.6374626870060325
0.0165,1.7931937500000001,1.0,2120.3962492200694,0.16956983159523561,1.336557127702998,0.8652999053993718,0.2883671375,0.6388051651540432
0.017,1.792775,1.0,2160.773652839228,0.17422788786603055,1.335953572225797,0.871287403036116,0.28834955,0.6400994812140506
0.0175,1.7923437500000001,1.0,2199.0281639718364,0.17885981569198203,1.335369718992983,0.8768673176996553,0.2883314375,0.6413493354035958
0.018000000000000002,1.7919,1.0,2235.257240725222,0.18346576318364996,1.3348039301521926,0.8820749284605792,0.2883128,0.6425584450084367
0.0185,1.79144375,1.0,2269.536105795516,0.188045875350835,1.3342548814512267,0.8869419574564079,0.2882936375,0.6437298285268698
0.019,1.790975,1.0,2301.937488356008,0.1926002962203737,1.333721347519244,0.8914969250616915,0.28827395,0.6448662698021046
0.0195,1.79049375,1.0,2332.5407115690896,0.19712916981910245,1.3332021029854026,0.8957654925687636,0.2882537375,0.6459705311419168
0.02,1.79,1.0,2361.426322364382,0.20163263947713225,1.3326959695033938,0.8997707972393618,0.288233,0.6470452547072605
0.0205,1.78949375,1.0,2388.6753421248172,0.20611084847327588,1.3322018165861156,0.9035337358703885,0.2882117375,0.6480929625538419
0.021,1.788975,1.0,2414.368449484622,0.21056393987376548,1.3317185636393711,0.9070732131148859,0.28818995000000003,0.6491160540083944
0.021500000000000002,1.78844375,1.0,2438.5652276589994,0.21499205299359692,1.3312453741764714,0.9104063982139525,0.2881676375,0.6501163969601067
0.022,1.7879,1.0,2461.3286915112512,0.21939532714776597,1.3307814117107275,0.9135488627376084,0.2881448,0.6510958471513335
0.0225,1.78734375,1.0,2482.7250039744818,0.2237739016512686,1.3303258397554507,0.9165147513431996,0.28812143749999997,0.6520562486921438
0.023,1.786775,1.0,2502.8232079865556,0.22812791581910058,1.3298778218239515,0.9193169322966042,0.28809755,0.6529994345302464
0.0235,1.78619375,1.0,2521.6802266131904,0.2324575057724643,1.329436660891259,0.9219671547467493,0.28807313749999996,0.6539269338674034
0.024,1.7856,1.0,2539.3764868316566,0.23676281301234706,1.329001459016404,0.9244761053106124,0.2880482,0.6548406886641498
0.0245,1.78499375,1.0,2555.958613047621,0.24104397176100367,1.3285716571294115,0.9268536060805485,0.2880227375,0.6557419200613279
0.025,1.784375,1.0,2571.474349782783,0.24530111613558636,1.3281467007765344,0.9291086449672626,0.28799675,0.6566318328108278
0.025500000000000002,1.78374375,1.0,2585.9729156162866,0.24953438025324745,1.3277260355040263,0.9312494572455419,0.2879702375,0.657511625168411
0.026000000000000002,1.7831000000000001,1.0,2599.5048776298113,0.25374389823113924,1.3273091068581409,0.9332835988016195,0.2879432,0.6583824890552492
0.0265,1.78244375,1.0,2612.1220326683097,0.25792980418641387,1.3268953603851315,0.9352180113582435,0.2879156375,0.6592456101998567
0.027,1.781775,1.0,2623.867496477272,0.26209222818663913,1.326484332475016,0.9370590929424276,0.28788755,0.6601019791082374
0.0275,1.7810937500000001,1.0,2634.800274662352,0.26623130768441106,1.326075421126781,0.9388127186000664,0.2878589375,0.6609528690592873
0.028,1.7804,1.0,2644.956289392707,0.27034717190327523,1.3256682463758565,0.9404843357226351,0.2878298,0.6617990857859517
0.0285,1.77969375,1.0,2654.370311837419,0.274439949347136,1.3252624452407564,0.9420789756820589,0.2878001375,0.6626413957780737
0.029,1.778975,1.0,2663.0777320078273,0.27850976851989767,1.3248576547399948,0.9436012890224643,0.28776995,0.6634805617245865
0.029500000000000002,1.7782437500000001,1.0,2671.1145037317638,0.2825567579254646,1.3244535118920853,0.9450555792018471,0.2877392375,0.6643173425411113
0.03,1.7775,1.0,2678.517092549437,0.28658104606774104,1.3240496537155415,0.9464458329410561,0.287708,0.6651524933891506
0.0305,1.77674375,1.0,2685.3224265305,0.2905827614506315,1.3236457172288776,0.9477757475581569,0.2876762375,0.6659867656868795
0.031,1.775975,1.0,2691.555420271436,0.2945620242446491,1.3232414532257244,0.94904876742251,0.28764395,0.6668206725654395
0.0315,1.7751937500000001,1.0,2697.266088086336,0.29851897275156236,1.3228363859214969,0.9502680709365773,0.2876111375,0.6676551910878391
0.032,1.7744,1.0,2702.4777714023353,0.302453729673175,1.3224302867226991,0.9514366404249393,0.2875778,0.6684907850890243
0.0325,1.77359375,1.0,2707.2129563355297,0.3063664170101672,1.3220229370592862,0.952557253894786,0.2875439375,0.669327895432752
0.033,1.772775,1.0,2711.494345639642,0.31025715676321886,1.321614118361213,0.9536325005949355,0.28750955,0.6701669606847569
0.0335,1.7719437500000002,1.0,2715.3448379390584,0.31412607093301015,1.3212036120584345,0.9546647961102179,0.2874746375,0.6710084170937969
0.034,1.7711000000000001,1.0,2718.787508020642,0.3179732815202211,1.3207911995809059,0.9556563960777045,0.2874392,0.6718526985696538
0.0345,1.7702437500000001,1.0,2721.845588185061,0.3217989105255318,1.320376662358582,0.9566094086651835,0.2874032375,0.6727002366580841
0.035,1.7693750000000001,1.0,2724.542450656896,0.3256030799496222,1.3199597818214182,0.9575258059365994,0.28736675,0.6735514605127249
0.035500000000000004,1.76849375,1.0,2726.901591054563,0.32938591179317245,1.319540339399369,0.9584074342153821,0.2873297375,0.6744067968639543
0.036000000000000004,1.7676,1.0,2728.934651718988,0.333147518481408,1.3191182252563176,0.9592560325594944,0.2872922,0.6752664486902364
0.0365,1.76669375,1.0,2730.6745225252344,0.3368880314349513,1.3186931371767219,0.9600732165814018,0.2872541375,0.6761310086621783
0.037,1.765775,1.0,2732.1371839656076,0.34060756795398694,1.318264927421136,0.9608605148580419,0.28721555,0.6770007524668975
0.0375,1.76484375,1.0,2733.3358686744737,0.34430624298926615,1.3178334737679265,0.961619365086947,0.2871764375,0.6778759022723622
0.038,1.7639,1.0,2734.283860776373,0.34798417149154015,1.3173986539954605,0.9623511186382145,0.28713679999999997,0.6787566787049424
0.0385,1.76294375,1.0,2734.9944895451727,0.3516414684115601,1.3169603458821046,0.963057046682748,0.28709663750000003,0.6796433008236499
0.039,1.761975,1.0,2735.481123392913,0.3552782487000772,1.3165184272062258,0.9637383458212712,0.28705595,0.680535986093422
0.0395,1.7609937500000001,1.0,2735.7571641917307,0.35889462730784266,1.3160727757461907,0.9643961432597373,0.2870147375,0.681434950357456
0.04,1.76,1.0,2735.8360419253627,0.36249071918560766,1.3156232692803664,0.9650315015721562,0.286973,0.6823404078085884
0.0405,1.7589937500000001,1.0,2735.731209672946,0.3660666392841235,1.3151697855871196,0.9656454230877652,0.2869307375,0.6832525709597228
0.041,1.757975,1.0,2735.4561389231912,0.3696225025541412,1.314712202444817,0.9662388539358281,0.28688795,0.6841716506133053
0.0415,1.75694375,1.0,2735.0204097581295,0.373158413831055,1.3142504330951452,0.9668126890683806,0.2868446375,0.6850977847561022
0.042,1.7559,1.0,2734.4390385055294,0.37667449798243224,1.31378434151717,0.9673677736125768,0.28680079999999997,0.6860312086053446
0.0425,1.75484375,1.0,2733.719866706617,0.38017086401267286,1.313313856911167,0.9679049095709268,0.2867564375,0.6869720250875279
0.043000000000000003,1.753775,1.0,2732.8704025953098,0.3836476200323693,1.312838911566327,0.9684248560088109,0.28671155,0.6879203297512622
0.043500000000000004,1.75269375,1.0,2731.898159469381,0.387104874152114,1.31235943777184,0.9689283316837408,0.28666613750000003,0.6888762169478956
0.044,1.7516,1.0,2730.8106539621826,0.3905427344824993,1.3118753678168964,0.969416017584287,0.2866202,0.6898397798121032
0.0445,1.75049375,1.0,2729.615404418025,0.39396130913411775,1.3113866339906866,0.9698885592847722,0.2865737375,0.6908111102421882
0.045,1.7493750000000001,1.0,2728.319929367433,0.3973607062175617,1.310893168582401,0.9703465691307825,0.28652675,0.6917902988800855
0.0455,1.74824375,1.0,2726.9317461050723,0.4007410338434236,1.31039490388123,0.9707906282691902,0.2864792375,0.692777435091078
0.046,1.7471,1.0,2725.458369369196,0.4041024001222958,1.3098917721763637,0.9712212885351527,0.2864312,0.6937726069432166
0.0465,1.7459437500000001,1.0,2723.9071388244506,0.4074449121706882,1.3093837073156238,0.9716390741879966,0.28638263750000004,0.6947758981110983
0.047,1.744775,1.0,2722.281449238866,0.41076865060778833,1.3088706790092692,0.9720444826767315,0.28633355,0.695787320307248
0.0475,1.74359375,1.0,2720.594147444355,0.41407376152494135,1.3083525709041037,0.9724379895069962,0.28628393750000003,0.6968070536250948
0.048,1.7424,1.0,2718.8486819887776,0.4173603449265081,1.3078293521188191,0.972820047172436,0.2862338,0.6978351083358039
0.0485,1.74119375,1.0,2717.0484990429577,0.42062850081684916,1.3073009917721063,0.9731910864647235,0.2861831375,0.6988714938006373
0.049,1.739975,1.0,2715.1970420443527,0.42387832920032525,1.3067674589826572,0.9735515177107608,0.28613195,0.6999162184608537
0.0495,1.73874375,1.0,2713.2977513634723,0.42710993008129716,1.3062287228691627,0.9739017319284325,0.2860802375,0.7009692898275559
0.05,1.7375,1.0,2711.354063990496,0.4303234034641256,1.3056847525503146,0.9742421019069539,0.286028,0.7020307144714699
0.0505,1.73624375,1.0,2709.3694132433866,0.43351884935317125,1.305135517144804,0.9745729832173792,0.2859752375,0.703100498012669
0.051000000000000004,1.734975,1.0,2707.3472284970903,0.4366963677527948,1.3045809857713226,0.9748947151583628,0.28592195,0.7041786451102339
0.051500000000000004,1.73369375,1.0,2705.290934933939,0.439856058667357,1.3040211275485616,0.9752076216418613,0.2858681375,0.7052651594518535
0.052000000000000005,1.7324,1.0,2703.203953314878,0.4429980221012186,1.3034559115952125,0.9755120120230864,0.2858138,0.7063600437433629
0.0525,1.73109375,1.0,2701.089699772548,0.44612235805874023,1.3028853070299669,0.9758081818786737,0.28575893750000003,0.707463299698223
0.053,1.729775,1.0,2698.9515856246016,0.44922916654428263,1.3023092829715157,0.9760964137367194,0.28570355000000003,0.7085749280269389
0.0535,1.72844375,1.0,2696.7930172088486,0.4523185475622066,1.3017278085385506,0.9763769777620509,0.2856476375,0.7096949284264149
0.054,1.7271,1.0,2694.6173957394467,0.4553906011168728,1.301140852849763,0.9766501323998367,0.2855912,0.7108232995692518
0.0545,1.7257437500000001,1.0,2692.426867716272,0.4584454176742006,1.3005483964589537,0.9769161247370589,0.2855342375,0.7119600171745906
0.055,1.724375,1.0,2690.220282984455,0.4614830689020038,1.2999504500729724,0.9771751913443693,0.28547675,0.713104998408869
0.0555,1.72299375,1.0,2688.00590733054,0.46450370263547913,1.2993469381721485,0.9774275609664177,0.2854187375,0.7142583246395404
0.056,1.7216,1.0,2685.7847793694204,0.46750740936431384,1.2987378513377832,0.9776734511733909,0.2853602,0.7154199495474636
0.0565,1.72019375,1.0,2683.557936052284,0.4704942795781952,1.2981231801511766,0.9779130705144351,0.28530113749999997,0.7165898260731796
0.057,1.718775,1.0,2681.3264126529634,0.4734644037668104,1.2975029151936295,0.9781466189629164,0.28524155,0.717767906413559
0.0575,1.71734375,1.0,2679.0912427557673,0.47641787241984673,1.2968770470464428,0.9783742883362185,0.2851814375,0.7189541420184444
0.058,1.7159,1.0,2676.8534582463803,0.47935477602699145,1.296245566290917,0.9785962626917275,0.2851208,0.7201484835872893
0.0585,1.71444375,1.0,2674.6140893035304,0.48227520507793176,1.2956084635083527,0.9788127187005312,0.2850596375,0.7213508810657874
0.059000000000000004,1.7129750000000001,1.0,2672.374164393531,0.4851792500623549,1.2949657292800507,0.9790238260002564,0.28499795,0.7225612836424995
0.059500000000000004,1.71149375,1.0,2670.134710266272,0.4880670014699481,1.2943173541873119,0.9792297475283576,0.2849357375,0.7237796397454732
0.06,1.71,1.0,2667.896751953306,0.49093854979039864,1.2936633288114365,0.9794306398370916,0.284873,0.7250058970388589
0.0605,1.7084937500000001,1.0,2665.661312768161,0.4937939855133937,1.2930036437337256,0.9796266533913114,0.2848097375,0.7262400024195155
0.061,1.7069750000000001,1.0,2663.429414308135,0.49663339912862065,1.2923382895354794,0.9798179328501456,0.28474595,0.7274819020136168
0.0615,1.7054437500000001,1.0,2661.202076458185,0.4994568811257666,1.291667256797999,0.9800046173335505,0.2846816375,0.7287315411732466
0.062,1.7039,1.0,2658.9803173976616,0.5022645219945189,1.290990536102585,0.980186840674653,0.2846168,0.7299888644729915
0.0625,1.70234375,1.0,2656.7651536072212,0.5050564122245647,1.290308118030538,0.9803647316587473,0.2845514375,0.731253815706528
0.063,1.7007750000000001,1.0,2654.557599879563,0.5078326423055912,1.2896199931631587,0.9805384142497436,0.28448555,0.7325263378832013
0.0635,1.69919375,1.0,2652.3586693310185,0.5105933027272858,1.2889261520817477,0.9807080078048144,0.28441913750000003,0.7338063732246008
0.064,1.6976,1.0,2650.169130148078,0.5133384785321056,1.2882265876116632,0.9808736269951585,0.2843522,0.7350938590361487
0.0645,1.69599375,1.0,2647.987524306797,0.5160682157303018,1.2875213131112597,0.9810353805295791,0.2842847375,0.7363886942180388
0.065,1.694375,1.0,2645.8167611801196,0.518782663978324,1.286810301640293,0.9811933785569001,0.28421675,0.7376908509981
0.0655,1.69274375,1.0,2643.656938411251,0.521481904187401,1.2860935521839174,0.9813477236499446,0.2841482375,0.7390002531849111
0.066,1.6911,1.0,2641.5081535209506,0.524166017268762,1.2853710637272868,0.9814985147182238,0.2840792,0.7403168239386377
0.0665,1.6894437500000001,1.0,2639.370503909471,0.5268350841336356,1.2846428352555552,0.9816458471632952,0.2840096375,0.7416404857706596
0.067,1.687775,1.0,2637.2440868584886,0.5294891856932508,1.283908865753877,0.9817898130264577,0.28393955,0.7429711605431983
0.0675,1.68609375,1.0,2635.128999533634,0.5321284028588366,1.283169154207406,0.9819305011292158,0.2838689375,0.7443087694689487
0.068,1.6844000000000001,1.0,2633.0253389864693,0.5347528165416219,1.2824236996012959,0.9820679972069105,0.2837978,0.7456532331107046
0.0685,1.68269375,1.0,2630.9332021565488,0.5373625076528356,1.2816725009207013,0.9822023840358979,0.2837261375,0.7470044713809871
0.069,1.680975,1.0,2628.8526858738282,0.5399575571037066,1.280915557150776,0.9823337415546276,0.28365395,0.7483624035416745
0.0695,1.67924375,1.0,2626.7838868609,0.5425380458054638,1.280152867276674,0.982462146978952,0.28358123749999997,0.7497269482036297
0.07,1.6775,1.0,2624.7269017350623,0.5451040546693363,1.2793844302835493,0.9825876749119806,0.283508,0.7510980233263284
0.07050000000000001,1.67574375,1.0,2622.6818270109193,0.5476556646065529,1.2786102451565562,0.9827103974487711,0.2834342375,0.7524755462174861
0.07100000000000001,1.673975,1.0,2620.648759102209,0.5501929565283424,1.2778303108808484,0.9828303842761319,0.28335995,0.7538594335326885
0.07150000000000001,1.67219375,1.0,2618.6277943246123,0.552716011345934,1.2770446264415802,0.9829477027677989,0.2832851375,0.7552496012750168
0.07200000000000001,1.6704,1.0,2616.619028898038,0.5552249099705563,1.2762531908239054,0.9830624180752239,0.2832098,0.7566459647946776
0.0725,1.66859375,1.0,2614.622558948484,0.5577197333134383,1.2754560030129785,0.9831745932142117,0.2831339375,0.7580484387886288
0.073,1.6667750000000001,1.0,2612.6384805112393,0.5602005622858092,1.2746530619939531,0.983284289147615,0.28305755,0.7594569373002097
0.0735,1.66494375,1.0,2610.666889532691,0.5626674777988976,1.2738443667519832,0.9833915648642939,0.2829806375,0.760871373718767
0.074,1.6631,1.0,2608.7078818728305,0.5651205607639326,1.2730299162722232,0.9834964774545337,0.2829032,0.7622916607792819
0.0745,1.6612437500000001,1.0,2606.759035893989,0.5675598480756553,1.2722097329546824,0.9835990807212874,0.2828252375,0.7637176699130755
0.075,1.659375,1.0,2604.8209510377696,0.5699854514549664,1.2713838111234466,0.9836994297526019,0.28274675,0.7651493209825048
0.0755,1.65749375,1.0,2602.894693285201,0.5723974709334619,1.2705521407520963,0.983797577038523,0.2826677375,0.7665865406073273
