Time [s],Phi [rad],STIM [ ],Fsee [N],Gamma [ ],Lcerel [ ],q [ ],Lmtc [m],fisomrel [ ]
0.0,1.8,1.0,17.96821080219794,1.142998726558981e-05,1.3793396282911679,0.005000034782388978,0.288653,0.5411398163517813
0.0005,1.79999375,1.0,18.27792709664247,0.005620575182870828,1.379302256388848,0.012944482803069264,0.2886527375,0.5412302241655889
0.001,1.799975,1.0,21.62055461929959,0.011198257508844522,1.378938080173028,0.03561602328361043,0.28865195,0.5421107506211091
0.0015,1.79994375,1.0,31.073572722656216,0.01674465344786967,1.3780458342683526,0.0706118970298433,0.2886506375,0.5442644999755909
0.002,1.7999,1.0,53.590990073942,0.022259938490978654,1.3763675736407135,0.11472990696485925,0.2886488,0.5483018160452874
0.0025,1.79984375,1.0,97.13290869475786,0.027744287145120988,1.3739344940522997,0.16458780700779205,0.28864643749999996,0.554123068105391
0.003,1.7997750000000001,1.0,160.97623651994073,0.03319787294087277,1.37121366740922,0.21729377836657265,0.28864354999999997,0.5605880520682305
0.0035,1.79969375,1.0,237.70367828874708,0.038620868432034695,1.3685841075129732,0.27062614235014004,0.2886401375,0.5667913127833706
0.004,1.7996,1.0,321.48838589062444,0.04401344520641252,1.3661555199188709,0.3229286361101495,0.2886362,0.5724812985744305
0.0045000000000000005,1.7994937500000001,1.0,409.29012793906736,0.04937577389100222,1.3639222888967584,0.37304669190622947,0.2886317375,0.5776803815183174
0.005,1.799375,1.0,499.43631923730663,0.054708024143077585,1.361857857534017,0.4202588613256298,0.28862675,0.5824581981533516
0.0055,1.79924375,1.0,590.8134363668963,0.060010364697639686,1.3599383853024658,0.4641842544863097,0.2886212375,0.5868761440875436
0.006,1.7991000000000001,1.0,682.5411483148697,0.06528296331062625,1.3581459959452988,0.5046896644109824,0.2886152,0.5909803749628508
0.006500000000000001,1.79894375,1.0,773.9038920544389,0.0705259868150421,1.3564668672395692,0.5418096357041798,0.2886086375,0.5948066727053806
0.007,1.798775,1.0,864.3083795849899,0.07573960110126379,1.354890030447074,0.5756848685527313,0.28860155,0.5983835021979431
0.0075,1.79859375,1.0,953.2652809272867,0.08092397113246123,1.3534064398026593,0.6065172741292,0.2885939375,0.6017343377104891
0.008,1.7984,1.0,1040.3812750885293,0.08607926094472351,1.3520083103605993,0.6345387353300515,0.2885858,0.6048793030519005
0.0085,1.79819375,1.0,1125.3397957244367,0.09120563367291849,1.3506888795486953,0.6599904768546129,0.2885771375,0.6078358091864817
0.009000000000000001,1.797975,1.0,1207.8874066999313,0.09630325081316454,1.3494422095909435,0.6831099691362298,0.28856795,0.610619075753186
0.0095,1.79774375,1.0,1287.884916348531,0.10137227521833284,1.3482622202614418,0.7041226950007429,0.2885582375,0.6132443429163617
0.01,1.7975,1.0,1365.191711548302,0.10641286697756201,1.3471440683036895,0.7232387690267498,0.288548,0.6157238387804955
0.0105,1.79724375,1.0,1439.6925519647664,0.11142518453531147,1.3460835327090113,0.7406507450052581,0.2885372375,0.6180682027667435
0.011,1.796975,1.0,1511.3354085333694,0.11640938633604067,1.3450763924687321,0.7565329669209855,0.28852595000000003,0.6202878933697882
0.0115,1.79669375,1.0,1580.1227237822218,0.12136563067137554,1.3441184626143396,0.7710421797813057,0.2885141375,0.6223931240049214
0.012,1.7964,1.0,1646.0685052371816,0.12629407480749477,1.343206030417096,0.7843188097489343,0.28850180000000003,0.6243929231037606
0.0125,1.79609375,1.0,1709.184583958457,0.1311948744108201,1.3423359129286758,0.7964882838088653,0.2884889375,0.6262950341814097
0.013000000000000001,1.7957750000000001,1.0,1769.5037646505957,0.13606818412372215,1.341505104246574,0.8076622699006234,0.28847555,0.6281067084615326
0.0135,1.79544375,1.0,1827.0772115767593,0.1409141578228324,1.340710754135716,0.8179400716972836,0.2884616375,0.629834764082499
0.014,1.7951000000000001,1.0,1881.988759197947,0.1457329503721733,1.339949968234933,0.8274098931121966,0.2884472,0.6314860302840182
0.0145,1.79474375,1.0,1934.2985680938602,0.15052471374708032,1.3392203916811085,0.8361502905195677,0.2884322375,0.6330660901393984
0.015,1.794375,1.0,1984.0670297624433,0.1552895986441443,1.3385198943213843,0.8442311652797728,0.28841675,0.6345799781525472
0.0155,1.79399375,1.0,2031.3729813450955,0.16002775575995606,1.3378463460029029,0.8517146995391925,0.2884007375,0.6360326737643076
0.016,1.7936,1.0,2076.3052126492403,0.1647393351819254,1.3371976885173322,0.8586562899591031,0.2883842,0.6374289504418629
0.0165,1.7931937500000001,1.0,2118.9572742434107,0.1694244869880053,1.3365719701602494,0.8651053620664811,0.2883671375,0.6387733064491332
0.017,1.792775,1.0,2159.4120034492657,0.17408335964098942,1.3359674850876158,0.8711061147275195,0.28834955,0.6400696714410163
0.0175,1.7923437500000001,1.0,2197.73990921424,0.17871609939082306,1.3353827667949578,0.8766981309799419,0.2883314375,0.6413214277326498
0.018000000000000002,1.7919,1.0,2234.0210375558067,0.18332285248745148,1.3348163487778026,0.8819168542477896,0.2883128,0.642531927905296
0.0185,1.79144375,1.0,2268.344169143658,0.18790376518082003,1.3342667645316768,0.8867940718263961,0.2882936375,0.6437044965864941
0.019,1.790975,1.0,2300.7866446970647,0.1924589816625521,1.3337327398145866,0.891358385075511,0.28827395,0.644842022882173
0.0195,1.79049375,1.0,2331.4492273813407,0.1969886489403529,1.3332128364771054,0.8956354897738384,0.2882537375,0.6459477219607201
0.02,1.79,1.0,2360.396745141854,0.20149290875591827,1.3327060320162851,0.8996486378605526,0.288233,0.6470239038902381
0.0205,1.78949375,1.0,2387.6972106238363,0.20597190262899812,1.332211321551222,0.9034188203974048,0.2882117375,0.6480728247231845
0.021,1.788975,1.0,2413.423182108545,0.21042577207934227,1.3317277002010115,0.9069650146241549,0.28818995000000003,0.6490967248703694
0.021500000000000002,1.78844375,1.0,2437.651379483697,0.21485465862670064,1.33125416308475,0.9103044047913067,0.2881676375,0.6500978298438196
0.022,1.7879,1.0,2460.4470483828086,0.21925870146119794,1.3307898515522916,0.9134526050091242,0.2881448,0.6510780424426432
0.0225,1.78734375,1.0,2481.8933185080327,0.22363804325089412,1.3303337669324786,0.9164237722433551,0.28812143749999997,0.6520395485465527
0.023,1.786775,1.0,2502.046548743027,0.22799282135945406,1.3298851946926975,0.9192308381210588,0.28809755,0.6529839232224524
0.0235,1.78619375,1.0,2520.9602104387013,0.23232317222875631,1.329443470397598,0.921885592884323,0.28807313749999996,0.6539126269527649
0.024,1.7856,1.0,2538.6899069762476,0.2366292323006794,1.3290079296118291,0.924398793684267,0.2880482,0.6548271117746738
0.0245,1.78499375,1.0,2555.2931946186914,0.24091113801710184,1.3285779079000406,0.9267802693328343,0.2880227375,0.6557288215562259
0.025,1.784375,1.0,2570.8284641592822,0.24516902555123393,1.3281527497150616,0.92903901456207,0.28799675,0.6566191736429979
0.025500000000000002,1.78374375,1.0,2585.345601245541,0.24940302819115248,1.3277318940112435,0.9311832853865987,0.2879702375,0.6574993802544742
0.026000000000000002,1.7831000000000001,1.0,2598.911620931864,0.2536132845603937,1.3273146328404546,0.9332206349823622,0.2879432,0.6583709538536939
0.0265,1.78244375,1.0,2611.56641554043,0.25779992570935634,1.3269005232334783,0.9351580415163855,0.2879156375,0.6592348466507594
0.027,1.781775,1.0,2623.3508723512696,0.26196308268843915,1.3264891222210982,0.9370019236640507,0.28788755,0.6600920059671456
0.0275,1.7810937500000001,1.0,2634.3067893821303,0.26610288654804076,1.326079986834098,0.9387581929191514,0.2878589375,0.6609433743184774
0.028,1.7804,1.0,2644.4767955189077,0.27021946833856,1.3256726741032612,0.940432300378095,0.2878298,0.6617898894847929
0.0285,1.77969375,1.0,2653.9042749969253,0.27431295911039544,1.3252667410593717,0.9420292786418548,0.2878001375,0.6626324845682897
0.029,1.778975,1.0,2662.62078901244,0.27838348551399106,1.324861859837898,0.9435537938909832,0.28776995,0.6634718495620595
0.029500000000000002,1.7782437500000001,1.0,2670.6761219226146,0.28243118194671896,1.3244575400962122,0.9450101444138707,0.2877392375,0.6643090072535551
0.03,1.7775,1.0,2678.1086157104432,0.2864561776687995,1.324053401927675,0.9464023251745977,0.287708,0.6651447471272343
0.0305,1.77674375,1.0,2684.9457491847966,0.29045859761678144,1.323649169253548,0.947734053144064,0.2876762375,0.6659796404384193
0.031,1.775975,1.0,2691.2153665662804,0.2944385667272135,1.3232445659950915,0.9490087788867716,0.28764395,0.6668142555951687
0.0315,1.7751937500000001,1.0,2696.945644356041,0.2983962099366445,1.3228393160735672,0.9502297089770729,0.2876111375,0.6676491581541817
0.032,1.7744,1.0,2702.1650598947886,0.30233165218162306,1.3224331434102357,0.9513998262678292,0.2875778,0.6684849108118445
0.0325,1.77359375,1.0,2706.9023616114964,0.3062450183986979,1.322025771926358,0.9525219082403688,0.2875439375,0.6693220733904123
0.033,1.772775,1.0,2711.1865409618727,0.3101364335244178,1.3216169255431953,0.953598543637967,0.28750955,0.6701612028193328
0.0335,1.7719437500000002,1.0,2715.038784106086,0.31400601915804843,1.3212064012923903,0.9546321550171374,0.2874746375,0.671002703344362
0.034,1.7711000000000001,1.0,2718.486198025971,0.3178539001268441,1.3207939438412895,0.9556249994242033,0.2874392,0.6718470841669376
0.0345,1.7702437500000001,1.0,2721.560747138887,0.3216802018165231,1.3203792551618836,0.9565791817553192,0.2874032375,0.6726949389729486
0.035,1.7693750000000001,1.0,2724.2794902776955,0.32548504277581014,1.3199621742632384,0.9574966840950413,0.28736675,0.6735465785737917
0.035500000000000004,1.76849375,1.0,2726.6595943642883,0.32926854155342966,1.31954254015442,0.958379362060261,0.2873297375,0.6744023119632042
0.036000000000000004,1.7676,1.0,2728.718323085654,0.33303081669810625,1.319120191844494,0.9592289543205023,0.2872922,0.6752624462918795
0.0365,1.76669375,1.0,2730.473026144986,0.3367719867585645,1.3186949683425258,0.9600470912976968,0.2872541375,0.6761272868404226
0.037,1.765775,1.0,2731.9411290867665,0.340492170283529,1.3182667086575817,0.9608353031245741,0.28721555,0.676997136990657
0.0375,1.76484375,1.0,2733.140123697424,0.3441914858217243,1.317835251798727,0.961595026932414,0.2871764375,0.6778722981952798
0.038,1.7639,1.0,2734.0875589797743,0.347870051921875,1.317400436775028,0.9623276135314693,0.28713679999999997,0.6787530699458592
0.0385,1.76294375,1.0,2734.8023744448305,0.35152798017862863,1.3169620904114485,0.9630343309880207,0.28709663750000003,0.6796397743686375
0.039,1.761975,1.0,2735.2982467032593,0.35516539543057074,1.3165200876957015,0.9637163801076323,0.28705595,0.6805326341999536
0.0395,1.7609937500000001,1.0,2735.58653365894,0.3587824102889804,1.3160743249627278,0.9643748915462239,0.2870147375,0.6814318274851912
0.04,1.76,1.0,2735.6786326983324,0.36237913718191483,1.3156246984335402,0.9650109310694437,0.286973,0.6823375310546453
0.0405,1.7589937500000001,1.0,2735.5859639279606,0.3659556885374314,1.3151711043291512,0.9656255040039687,0.2869307375,0.6832499202676764
0.041,1.757975,1.0,2735.3199661950957,0.36951217678358744,1.3147134388705737,0.9662195592962805,0.28688795,0.6841691689867911
0.0415,1.75694375,1.0,2734.8920933467684,0.37304871434844034,1.3142515982788205,0.966793993258012,0.2868446375,0.6850954495510422
0.042,1.7559,1.0,2734.3138107284617,0.37656541366004737,1.3137854787749044,0.9673496530250737,0.28680079999999997,0.6860289327487374
0.0425,1.75484375,1.0,2733.596591920798,0.3800623871464659,1.3133149765798378,0.9678873397551517,0.2867564375,0.6869697877894634
0.043000000000000003,1.753775,1.0,2732.7467956289224,0.38353973888903226,1.3128400344266042,0.9684078140433219,0.28671155,0.6879180894769168
0.043500000000000004,1.75269375,1.0,2731.7758279284735,0.38699758732715267,1.3123605492436015,0.968911794659326,0.28666613750000003,0.6888740027941187
0.044,1.7516,1.0,2730.6943423699545,0.3904360470615127,1.3118764248028338,0.9693999624996027,0.2866202,0.6898376774623799
0.0445,1.75049375,1.0,2729.508403191368,0.39385522376211296,1.3113876065803742,0.9698729649369586,0.2865737375,0.6908091787887312
0.045,1.7493750000000001,1.0,2728.224075675796,0.39725522309895384,1.3108940400522953,0.9703314160217058,0.28652675,0.6917885709820212
0.0455,1.74824375,1.0,2726.847425033896,0.40063615074203596,1.3103956706946704,0.9707758985176381,0.2864792375,0.6927759171364978
0.046,1.7471,1.0,2725.384515353289,0.4039981123613597,1.3098924439835722,0.9712069657945865,0.2864312,0.693771279215206
0.0465,1.7459437500000001,1.0,2723.841408612751,0.40734121362692566,1.3093843053950738,0.9716251435889378,0.28638263750000004,0.6947747180331879
0.047,1.744775,1.0,2722.2241637628376,0.41066556020873435,1.3088712004052478,0.9720309316425021,0.28633355,0.6957862932405013
0.0475,1.74359375,1.0,2720.538835872879,0.41397125777678623,1.3083530744901677,0.9724248052292085,0.28628393750000003,0.6968060633050417
0.048,1.7424,1.0,2718.7914753426508,0.4172584120010818,1.307829873125906,0.9728072165782877,0.2862338,0.6978340854951807
0.0485,1.74119375,1.0,2716.9881271814843,0.42052712855162167,1.3073015417885354,0.973178596201861,0.2861831375,0.6988704158622099
0.049,1.739975,1.0,2715.131888486532,0.42377750820432397,1.3067680527652252,0.9735393553854255,0.28613195,0.6999150567685969
0.0495,1.73874375,1.0,2713.2275543104215,0.42700965663020257,1.3062293628402295,0.9738898855777604,0.2860802375,0.7009680399696017
0.05,1.7375,1.0,2711.2819326543863,0.43022368042852693,1.3056854103916011,0.9742305588260429,0.286028,0.7020294319952756
0.0505,1.73624375,1.0,2709.297960785884,0.4334196787358011,1.3051361690332743,0.9745617314526471,0.2859752375,0.7030992294250543
0.051000000000000004,1.734975,1.0,2707.2785726251786,0.4365977506885292,1.3045816123791834,0.9748837434713884,0.28592195,0.704177427935258
0.051500000000000004,1.73369375,1.0,2705.2266985441247,0.4397579954232152,1.3040217140432624,0.9751969194753759,0.2858681375,0.7052640222901684
0.052000000000000005,1.7324,1.0,2703.1452651810982,0.44290051207636316,1.3034564476394457,0.9755015694689775,0.2858138,0.7063590063330625
0.0525,1.73109375,1.0,2701.037195271245,0.44602539978447714,1.3028857867816677,0.9757979896478706,0.28575893750000003,0.7074623729772007
0.053,1.729775,1.0,2698.9054074920236,0.44913275768406125,1.3023097050838621,0.9760864631308429,0.28570355000000003,0.708574114196774
0.0535,1.72844375,1.0,2696.752816324129,0.45222268491161954,1.3017281761599637,0.976367260646716,0.2856476375,0.7096942210177994
0.054,1.7271,1.0,2694.582331928333,0.455295280603656,1.3011411736239067,0.9766406411795034,0.2855912,0.7108226835089799
0.0545,1.7257437500000001,1.0,2692.391682931711,0.4583506379356547,1.3005487184707156,0.9769068548555354,0.2855342375,0.7119593999541152
0.055,1.724375,1.0,2690.187417527478,0.46138885967584353,1.2999507509814743,0.9771661372468948,0.28547675,0.7131044227858725
0.0555,1.72299375,1.0,2687.9745161200367,0.46441004382865014,1.299347225701113,0.977418714348743,0.2854187375,0.7142577757176243
0.056,1.7216,1.0,2685.754162914207,0.46741428366916293,1.2987381318862616,0.9776648042769756,0.2853602,0.7154194150417938
0.0565,1.72019375,1.0,2683.527540219936,0.47040167247247006,1.2981234587935497,0.9779046160932428,0.28530113749999997,0.7165892962913605
0.057,1.718775,1.0,2681.295828434934,0.4733723035136599,1.297503195679607,0.9781383502524409,0.28524155,0.7177673742360378
0.0575,1.71734375,1.0,2679.0602060302285,0.4763262700678207,1.2968773318010631,0.9783661990245807,0.2851814375,0.7189536028784487
0.058,1.7159,1.0,2676.821849538506,0.47926366541004073,1.296245856414548,0.9785883468926903,0.2851208,0.7201479354502902
0.0585,1.71444375,1.0,2674.5819335448464,0.4821845828154082,1.2956087587766911,0.9788049709282977,0.2850596375,0.721350324408495
0.059000000000000004,1.7129750000000001,1.0,2672.3416306797926,0.4850891155590115,1.294966028144122,0.9790162411459201,0.28499795,0.722560721431381
0.059500000000000004,1.71149375,1.0,2670.102111615336,0.48797735691593885,1.2943176537734709,0.9792223208378934,0.2849357375,0.7237790774147939
0.06,1.71,1.0,2667.865749562984,0.49084938719713284,1.293663613847171,0.9794233652295752,0.284873,0.7250053632086084
0.0605,1.7084937500000001,1.0,2665.632967964275,0.49370531351378955,1.2930039044448154,0.9796195266463084,0.2848097375,0.7262395152426451
0.061,1.7069750000000001,1.0,2663.404222875859,0.49654522740546697,1.2923385213393426,0.979810950255058,0.28474595,0.7274814698377766
0.0615,1.7054437500000001,1.0,2661.180254032824,0.499369215859686,1.2916674576852423,0.9799977751684887,0.2846816375,0.7287311674981742
0.062,1.7039,1.0,2658.9617999352904,0.5021773658639674,1.2909907066370032,0.9801801352181623,0.2846168,0.7299885479939334
0.0625,1.70234375,1.0,2656.749597853587,0.504969764405832,1.290308261349115,0.9803581591929997,0.2845514375,0.7312535503585904
0.063,1.7007750000000001,1.0,2654.544383835765,0.5077464984728004,1.2896201149760664,0.980531971065234,0.28448555,0.7325261128866392
0.0635,1.69919375,1.0,2652.3468927155336,0.5105076550523937,1.2889262606723468,0.980701690204607,0.28441913750000003,0.733806173131043
0.064,1.6976,1.0,2650.1578581207164,0.5132533211321325,1.2882266915924452,0.980867431581499,0.2843522,0.7350936679007445
0.0645,1.69599375,1.0,2647.9780124839444,0.5159835836995377,1.2875214008908509,0.9810293059596397,0.2842847375,0.7363885332581717
0.065,1.694375,1.0,2645.808087053485,0.51869852974213,1.286810381722053,0.9811874200790075,0.28421675,0.7376907045167418
0.0655,1.69274375,1.0,2643.6488119052674,0.5213982462474304,1.2860936272405408,0.9813418768294855,0.2841482375,0.7390001162383626
0.066,1.6911,1.0,2641.5009159562073,0.5240828202029595,1.285371130600803,0.9814927754158005,0.2840792,0.7403167022309292
0.0665,1.6894437500000001,1.0,2639.363583489133,0.5267523122700072,1.2846428992246135,0.9816402104164741,0.2840096375,0.7416403696460667
0.067,1.687775,1.0,2637.235477307365,0.5294067946671075,1.2839089453685428,0.9817842741133699,0.28393955,0.742971016389419
0.0675,1.68609375,1.0,2635.1200039248033,0.5320464148007525,1.2831692374254242,0.9819250584566148,0.2838689375,0.7443086191833665
0.068,1.6844000000000001,1.0,2633.0170670322977,0.5346712507805327,1.282423776155372,0.9820626491234792,0.2837978,0.7456530952236616
0.0685,1.68269375,1.0,2630.9265705298944,0.5372813807160385,1.281672562318501,0.9821971288377117,0.2837261375,0.7470043610871497
0.069,1.680975,1.0,2628.8484185254374,0.5398768827168604,1.2809155966749253,0.9823285774902282,0.28365395,0.7483623327320494
0.0695,1.67924375,1.0,2626.7825153323124,0.5424578348925888,1.2801528799847592,0.9824570722540577,0.28358123749999997,0.7497269254982306
0.07,1.6775,1.0,2624.7287654679812,0.5450243153528141,1.2793844130081173,0.982582687693859,0.283508,0.7510980541074928
0.07050000000000001,1.67574375,1.0,2622.68707365204,0.5475764022071269,1.278610196505114,0.982705495870297,0.2834342375,0.7524756326638449
0.07100000000000001,1.673975,1.0,2620.657344804422,0.5501141735651175,1.2778302312358634,0.9828255664395538,0.28335995,0.7538595746537842
0.07150000000000001,1.67219375,1.0,2618.6394840437115,0.5526377075363764,1.2770445179604801,0.9829429667482305,0.2832851375,0.7552497929465727
0.07200000000000001,1.6704,1.0,2616.63339668553,0.555147082230494,1.2762530574390782,0.9830577619238849,0.2832098,0.7566461997945195
0.0725,1.66859375,1.0,2614.6389882405224,0.5576423757570609,1.2754558504317726,0.98317001496143,0.2831339375,0.7580487068332555
0.073,1.6667750000000001,1.0,2612.6561644129315,0.5601236662256674,1.2746528976986773,0.9832797868056093,0.28305755,0.7594572250820151
0.0735,1.66494375,1.0,2610.6848310987675,0.5625910317459042,1.2738441999999068,0.9833871364297536,0.2829806375,0.7608716649439127
0.074,1.6631,1.0,2608.7248943839595,0.5650445504273613,1.2730297580955754,0.9834921209110042,0.2829032,0.7622919362062232
0.0745,1.6612437500000001,1.0,2606.776260542969,0.5674843003796296,1.2722095727457976,0.9835947955021896,0.2828252375,0.763717948040658
0.075,1.659375,1.0,2604.8388360370323,0.5699103597122993,1.2713836447106877,0.9836952137005187,0.28274675,0.7651496090036456
0.0755,1.65749375,1.0,2602.91252751241,0.5723228065349609,1.27055197475036,0.9837934273132529,0.2826677375,0.766586827036609
