Time [s],Phi [rad],STIM [ ],Fsee [N],Gamma [ ],Lcerel [ ],q [ ],Lmtc [m],fisomrel [ ]
0.0,1.8,1.0,18.036363671826553,0.0002682829483001662,1.379332000340494,0.0050186905555142354,0.288653,0.5411582701456614
0.0005,1.79999375,1.0,18.429378946375937,0.0058759874019639405,1.3792854682858284,0.013673098418126396,0.2886527375,0.5412708340153056
0.001,1.799975,1.0,21.962785049546262,0.011452237067355903,1.3789032653578854,0.036967179676954044,0.28865195,0.5421948836133031
0.0015,1.79994375,1.0,31.829348729989,0.01699720838195696,1.3779818360467586,0.0724531397766156,0.2886506375,0.544418787049494
0.002,1.7999,1.0,55.16876553959558,0.02251107679138636,1.3762659663459718,0.11690520086207469,0.2886488,0.5485456714596048
0.0025,1.79984375,1.0,99.74240119360715,0.0279940167583884,1.373809591204857,0.16695098088218185,0.28864643749999996,0.5544208849593679
0.003,1.7997750000000001,1.0,164.34412870814165,0.03344620176841917,1.3710882635940447,0.21972959185245222,0.28864354999999997,0.5608848871899133
0.0035,1.79969375,1.0,241.49385594378424,0.03886780433107648,1.3684678267020856,0.2730473310850192,0.2886401375,0.5670646067775569
0.004,1.7996,1.0,325.51189621037145,0.04425899599023854,1.3660492874291668,0.3252719462869584,0.2886362,0.5727293340962987
0.0045000000000000005,1.7994937500000001,1.0,413.4506226836031,0.04961994732947172,1.3638248758251628,0.3752703700656827,0.2886317375,0.5779064404681278
0.005,1.799375,1.0,503.6768270965709,0.05495082796381177,1.361767939612923,0.4223387826072353,0.28862675,0.582665681977744
0.0055,1.79924375,1.0,595.0879895439649,0.0602518065775896,1.35985502303676,0.46610961275182083,0.2886212375,0.5870674821275921
0.006,1.7991000000000001,1.0,686.8170143984091,0.06552305089249356,1.3580683947389298,0.5064588577348385,0.2886152,0.5911576042381568
0.006500000000000001,1.79894375,1.0,778.150803598229,0.07076472767454399,1.3563944699200758,0.5434271630934336,0.2886086375,0.5949712430178195
0.007,1.798775,1.0,868.5034485547012,0.07597700284974283,1.354822349551389,0.5771588621866347,0.28860155,0.5985366717437244
0.0075,1.79859375,1.0,957.3834772998063,0.08116004116208594,1.3533431666824332,0.6078578899557149,0.2885939375,0.6018769341799435
0.008,1.7984,1.0,1044.4162433650902,0.08631400689879438,1.3519489617217242,0.6357568011752892,0.2885858,0.6050125266039552
0.0085,1.79819375,1.0,1129.2806530764665,0.09143906289960554,1.35063314088714,0.6610969678196735,0.2885771375,0.6079604608151119
0.009000000000000001,1.797975,1.0,1211.7323205524265,0.09653537118097807,1.3493897148776306,0.6841154275817587,0.28856795,0.6107360559238776
0.0095,1.79774375,1.0,1291.6096944433361,0.10160309351909969,1.3482129669333787,0.7050371979350316,0.2885582375,0.6133537297814213
0.01,1.7975,1.0,1368.7762764491965,0.10664238993943871,1.3470980275733013,0.7240715765940104,0.288548,0.6158257629296038
0.0105,1.79724375,1.0,1443.1430756209559,0.11165341965370816,1.346040373097929,0.741410126971434,0.2885372375,0.6181634572265503
0.011,1.796975,1.0,1514.6677969056364,0.11663634124329346,1.3450357084954645,0.757226345131151,0.28852595000000003,0.6203774230326302
0.0115,1.79669375,1.0,1583.3473184897143,0.12159131325726413,1.3440799595135569,0.7716762598596468,0.2885141375,0.6224776194551949
0.012,1.7964,1.0,1649.167987594593,0.12651849163037712,1.3431697687055968,0.7848997318291157,0.28850180000000003,0.6244722890514898
0.0125,1.79609375,1.0,1712.1520442238175,0.13141803205815683,1.3423018415720969,0.7970214677953712,0.2884889375,0.6263694172715277
0.013000000000000001,1.7957750000000001,1.0,1772.3433694504206,0.13629008955955824,1.3414730603437655,0.8081524900028946,0.28847555,0.6281764957253289
0.0135,1.79544375,1.0,1829.8144235959915,0.14113481950963686,1.3406803554505755,0.8183914877936237,0.2884616375,0.6299008144453748
0.014,1.7951000000000001,1.0,1884.6163608336647,0.14595237459336932,1.339921214988955,0.8278263393685521,0.2884472,0.6315483660728082
0.0145,1.79474375,1.0,1936.80528219513,0.15074290652417813,1.3391933340487476,0.8365351914135278,0.2884322375,0.6331246241610162
0.015,1.794375,1.0,1986.4583267753244,0.15550656701548593,1.338494407719797,0.8445875074716115,0.28841675,0.6346349998164023
0.0155,1.79399375,1.0,2033.6541736196773,0.16024350678046514,1.3378223171765142,0.852045145097582,0.2884007375,0.6360844452088349
0.016,1.7936,1.0,2078.4967938188056,0.16495387713231477,1.337174854370737,0.8589631653753487,0.2883842,0.6374780535078839
0.0165,1.7931937500000001,1.0,2121.057624272128,0.16963782619439166,1.3365503075705034,0.8653908137803374,0.2883671375,0.6388198038080344
0.017,1.792775,1.0,2161.4104171611534,0.17429550147668968,1.3359470674928733,0.8713720877296152,0.28834955,0.6401134178665142
0.0175,1.7923437500000001,1.0,2199.6398648424974,0.17892705048920277,1.3353635248549054,0.8769463267830222,0.2883314375,0.6413625835360117
0.018000000000000002,1.7919010739157062,1.0,2235.879382652436,0.18353261968140727,1.3347981665441913,0.8821487852600013,0.28831284510445965,0.642570751526301
0.0185,1.7914562554109201,1.0,2270.6185998440856,0.188112356423978,1.3342497397735118,0.8870111529898745,0.28829416272725866,0.6437407890986596
0.019,1.7910114369061343,1.0,2303.998746871618,0.19266640492562595,1.333717405445656,0.8915619985315876,0.2882754803500576,0.6448746597660067
0.0195,1.7905666184013482,1.0,2336.062388177892,0.1971949083371988,1.3332003967686055,0.8958270401998326,0.28825679797285664,0.6459741568662114
0.02,1.7901217998965624,1.0,2366.8558536370792,0.20169800980954428,1.332697946950342,0.8998294527974492,0.2882381155956556,0.6470410589764907
0.0205,1.7896769813917763,1.0,2396.426883029685,0.2061758519318714,1.3322093095849006,0.9035901574992743,0.2882194332184546,0.6480770874525628
0.021,1.7892321628869903,1.0,2424.8214001144615,0.21062857613351765,1.3317337868396915,0.9071280776345889,0.2882007508412536,0.6490838477965503
0.021500000000000002,1.7887873443822044,1.0,2452.0972989481406,0.2150563266881188,1.331270593757315,0.9104603313738178,0.2881820684640526,0.6500631177030483
0.022,1.7883425258774184,1.0,2478.291535598998,0.21945924167043523,1.3308191725981517,0.9136024865337224,0.28816338608685155,0.6510161831679665
0.0225,1.7878977073726325,1.0,2503.4432569266446,0.2238374591552274,1.3303789656225822,0.9165686833044558,0.28814470370965056,0.6519443210272725
0.023,1.7874528888678465,1.0,2527.593658459367,0.22819111721725566,1.3299494150909867,0.919371784923749,0.2881260213324496,0.6528487993658028
0.0235,1.7870080703630606,1.0,2550.7858491688785,0.2325203539312804,1.329529963263746,0.9220235106729523,0.28810733895524854,0.6537308779062314
0.024,1.7865632518582746,1.0,2573.0630076777165,0.2368253067598445,1.3291200684611786,0.924534556021821,0.2880886565780475,0.6545917746687153
0.0245,1.7861184333534885,1.0,2594.459738930838,0.24110611009507674,1.3287192841826336,0.9269147090718571,0.2880699742008465,0.6554325006583449
0.025,1.7856736148487027,1.0,2615.03023324565,0.24536290561426619,1.3283269946981835,0.9291729005704662,0.28805129182364553,0.6562544150269738
0.025500000000000002,1.7852287963439166,1.0,2634.8034272020664,0.2495958254797285,1.3279428322453253,0.931317350867242,0.2880326094464445,0.6570583506980691
0.026000000000000002,1.7847839778391308,1.0,2653.8093080169115,0.25380500185377924,1.3275664290615568,0.9333556020486227,0.2880139270692435,0.6578451356883295
0.0265,1.7843391593343447,1.0,2672.0788487762816,0.25799056689873406,1.3271974173843755,0.9352945830724398,0.28799524469204246,0.6586155932939886
0.027,1.7838943408295589,1.0,2689.6439466675224,0.2621526527769086,1.3268354294512787,0.9371406678538756,0.2879765623148415,0.6593705422684891
0.0275,1.7834495223247728,1.0,2706.5373642087184,0.2662913916506184,1.3264800974997641,0.9388997271413124,0.28795787993764044,0.6601107969915323
0.028,1.7830047038199868,1.0,2722.792673478165,0.27040691568217906,1.3261310537673294,0.9405771749131928,0.28793919756043945,0.6608371676295003
0.0285,1.782559885315201,1.0,2738.4325069653682,0.27449935128994063,1.3257880366334578,0.9421780229056474,0.28792051518323847,0.6615502397529234
0.029,1.7821150668104149,1.0,2753.4977586245654,0.2785688357390063,1.3254506244478372,0.9437068854730409,0.2879018328060374,0.6622509280819924
0.029500000000000002,1.781670248305629,1.0,2768.0120397426067,0.2826154966158746,1.325118558148549,0.9451680516894322,0.2878831504288364,0.6629398059547469
0.03,1.781225429800843,1.0,2781.996097468543,0.2866394597150439,1.3247916089424272,0.9465654985616012,0.2878644680516354,0.6636173812518796
0.0305,1.7807806112960571,1.0,2795.4711142169103,0.29064085083101265,1.3244695480363062,0.9479029145593114,0.2878457856744344,0.6642841594295765
0.031,1.780335792791271,1.0,2808.4586822909,0.29461979575827907,1.3241521466370203,0.9491837241927791,0.2878271032972334,0.6649406435925118
0.0315,1.779890974286485,1.0,2820.980779665997,0.2985764202913415,1.3238391759514037,0.9504111102080658,0.28780842092003234,0.665587334563507
0.032,1.7794461557816992,1.0,2833.0597469335794,0.3025108502246984,1.3235304071862908,0.9515880336570802,0.28778973854283135,0.6662247309498498
0.0325,1.7790013372769131,1.0,2844.7182654059147,0.30642321135284806,1.3232256115485155,0.9527172520686736,0.28777105616563037,0.6668533292062762
0.033,1.7785565187721273,1.0,2855.9706330095114,0.31031362250937305,1.3229246375837627,0.953801342952694,0.2877523737884293,0.6674734644177154
0.0335,1.7781117002673412,1.0,2866.8443733956115,0.31418221541864344,1.3226272186129286,0.9548427016160862,0.28773369141122834,0.6680857073025688
0.034,1.7776668817625554,1.0,2877.3573129751985,0.31802911321141675,1.3223331766105173,0.9558435726361154,0.2877150090340273,0.6686904440566743
0.0345,1.7772220632577693,1.0,2887.5227182209414,0.32185443492355337,1.3220423758433433,0.9568060576485292,0.2876963266568263,0.6692879724527259
0.035,1.7767772447529833,1.0,2897.3540357108795,0.3256582995909138,1.321754680578221,0.9577321228214545,0.2876776442796253,0.6698785890497672
0.035500000000000004,1.7763324262481974,1.0,2906.864882578996,0.3294408262493586,1.321469955081965,0.9586236091648184,0.2876589619024243,0.6704625892206613
0.036000000000000004,1.7758876077434114,1.0,2916.0690373731886,0.3332021339347482,1.3211880636213904,0.9594822419418171,0.2876402795252233,0.6710402671783855
0.0365,1.7754427892386255,1.0,2924.9804313226964,0.336942341682943,1.320908870463311,0.9603096392699455,0.28762159714802227,0.671611916001154
0.037,1.7749979707338395,1.0,2933.6131400133627,0.3406615685298036,1.3206322398745418,0.9611073199897147,0.2876029147708212,0.6721778276563594
0.0375,1.7745531522290534,1.0,2941.9813754716765,0.34435993351119054,1.3203580361218974,0.9618767108709044,0.28758423239362024,0.6727382930233453
0.038,1.7741083337242676,1.0,2950.0950146509904,0.3480375493820905,1.320086162501782,0.9626191556417725,0.28756555001641926,0.6732935222413357
0.0385,1.7736635152194815,1.0,2957.9673323159413,0.35169453595738215,1.3198164934982988,0.9633359172239916,0.2875468676392182,0.6738437834389434
0.039,1.7732186967146957,1.0,2965.6143867757596,0.35533101729279604,1.319548880282876,0.9640281833074416,0.28752818526201723,0.6743893912945158
0.0395,1.7727738782099096,1.0,2973.04398576376,0.3589471051545493,1.3192832469083373,0.9646970771025645,0.2875095028848162,0.6749305109810897
0.04,1.7723290597051238,1.0,2980.2640073758935,0.36254291130885885,1.319019517427506,0.9653436576024459,0.2874908205076152,0.675467307080106
0.0405,1.7718842412003377,1.0,2987.2823967999807,0.36611854752194173,1.3187576158932055,0.965968923936771,0.28747213813041417,0.6759999435908153
0.041,1.7714394226955517,1.0,2994.1071631744785,0.3696741255600148,1.3184974663582598,0.9665738193864455,0.2874534557532132,0.6765285839393149
0.0415,1.7709946041907658,1.0,3000.7463765739976,0.3732097571892951,1.3182389928754925,0.9671592350886108,0.28743477337601214,0.6770533909872201
0.042,1.7705497856859798,1.0,3007.2081651233916,0.3767255541759996,1.3179821194977268,0.9677260134588993,0.28741609099881116,0.6775745270399662
0.0425,1.770104967181194,1.0,3013.5007122390443,0.38022162828634526,1.3177267702777868,0.9682749513552035,0.2873974086216101,0.67809215385474
0.043000000000000003,1.7696601486764079,1.0,3019.632253999142,0.3836980912865491,1.3174728692684958,0.9688068030049296,0.28737872624440913,0.6786064326480503
0.043500000000000004,1.769215330171622,1.0,3025.6110766403826,0.38715505494282804,1.3172203405226774,0.9693222827156377,0.28736004386720815,0.6791175241029228
0.044,1.768770511666836,1.0,3031.4403686678565,0.39059261793786254,1.3169691524735956,0.9698220688787278,0.2873413614900071,0.679625498661258
0.0445,1.76832569316205,1.0,3037.1304850810498,0.39401090115382487,1.316719212026864,0.9703068033156224,0.28732267911280607,0.6801305508070228
0.045,1.767880874657264,1.0,3042.6900015925544,0.39741002027675704,1.3164704418485835,0.9707770953316037,0.2873039967356051,0.6806328425898034
0.0455,1.767436056152478,1.0,3048.123148061674,0.40079007919327003,1.3162228023498344,0.9712335244413853,0.2872853143584041,0.681132459419699
0.046,1.7669912376476922,1.0,3053.4341794681545,0.40415118178997467,1.3159762539416966,0.9716766410674701,0.28726663198120306,0.6816294864316725
0.0465,1.766546419142906,1.0,3058.627374937562,0.407493431953482,1.3157307570352508,0.9721069682790261,0.2872479496040021,0.6821240084883529
0.047,1.7661016006381203,1.0,3063.707036800361,0.41081693357040283,1.3154862720415768,0.9725250034108511,0.28722926722680103,0.682616110182743
0.0475,1.7656567821333342,1.0,3068.677489686938,0.41412179052734815,1.3152427593717548,0.9729312195717573,0.28721058484960005,0.6831058758408224
0.048,1.7652119636285482,1.0,3073.543079655997,0.41740810671092893,1.3150001794368653,0.9733260670508955,0.287191902472399,0.6835933895240518
0.0485,1.7647671451237623,1.0,3078.3081733594654,0.420675986007756,1.3147584926479883,0.9737099746298172,0.287173220095198,0.6840787350317803
0.049,1.7643223266189763,1.0,3082.977157240146,0.4239255323044403,1.314517659416204,0.974083350807406,0.287154537717997,0.6845619959035482
0.0495,1.7638775081141904,1.0,3087.5544367660113,0.42715684948759286,1.3142776401525926,0.9744465849442134,0.287135855340796,0.6850432554212931
0.05,1.7634326896094044,1.0,3092.0444356977105,0.43037004144382446,1.3140383952682346,0.9748000483321888,0.28711717296359496,0.6855225966114542
0.0505,1.7629878711046185,1.0,3096.4515953920054,0.4335652120597461,1.3137998851742099,0.9751440951953008,0.287098490586394,0.6860001022469793
0.051000000000000004,1.7625430525998325,1.0,3100.7741858723443,0.4367424329567227,1.3135621230557324,0.9754790634612337,0.287079808209193,0.6864757493137172
0.051500000000000004,1.7620982340950464,1.0,3105.0217728606135,0.43990184191043996,1.3133250258275833,0.9758052769441565,0.28706112583199195,0.6869497072389805
0.052000000000000005,1.7616534155902606,1.0,3109.1982766910837,0.4430435444059891,1.3130885587381922,0.9761230444812123,0.2870424434547909,0.6874220484287041
0.0525,1.7612085970854745,1.0,3113.305719187417,0.44616763539387805,1.312852703310716,0.9764326611354122,0.2870237610775899,0.6878928125994168
0.053,1.7607637785806887,1.0,3117.3461304426683,0.4492742098246151,1.3126174410683122,0.9767344090414927,0.28700507870038894,0.6883620393491721
0.0535,1.7603189600759026,1.0,3121.321548572853,0.4523633626487082,1.3123827535341377,0.9770285580828865,0.2869863963231879,0.6888297681582596
0.054,1.7598741415711165,1.0,3125.2340194777585,0.4554351888166654,1.3121486222313492,0.9773153665276704,0.28696771394598686,0.689296038389893
0.0545,1.7594293230663307,1.0,3129.0855966091917,0.4584897832789948,1.3119150286831038,0.9775950816263081,0.2869490315687859,0.6897608892908754
0.055,1.7589845045615446,1.0,3132.8783407465808,0.4615272409862045,1.3116819544125589,0.9778679401737842,0.2869303491915849,0.6902243599922435
0.0555,1.7585396860567588,1.0,3136.6143197808847,0.4645476568888025,1.3114493809428711,0.9781341690385288,0.28691166681438385,0.6906864895098928
0.056,1.7580948675519728,1.0,3140.295608505653,0.46755112593729686,1.3112172897971976,0.9783939856603562,0.28689298443718286,0.6911473167451757
0.0565,1.757650049047187,1.0,3143.9242884153327,0.4705377430821957,1.3109856624986955,0.978647598519473,0.2868743020599819,0.6916068804854829
0.057,1.7572052305424009,1.0,3147.5024475116443,0.47350760327400704,1.3107544805705216,0.9788952075784592,0.28685561968278084,0.6920652194048003
0.0575,1.7567604120376148,1.0,3151.0321801174473,0.47646080146323894,1.310523725535833,0.9791370046989847,0.2868369373055798,0.692522372064243
0.058,1.756315593532829,1.0,3154.5155866979753,0.4793974326003995,1.3102933789177869,0.9793731740349011,0.2868182549283788,0.6929783769125726
0.0585,1.755870775028043,1.0,3157.954773689594,0.4823175916359968,1.31006342223954,0.9796038924032233,0.28679957255117783,0.693433272286686
0.059000000000000004,1.755425956523257,1.0,3161.3518533365213,0.48522137352053885,1.3098338370242497,0.9798293296344119,0.2867808901739768,0.6938870964120876
0.059500000000000004,1.754981138018471,1.0,3164.7075462113426,0.48810885641751933,1.309604616590603,0.9800496481783935,0.28676220779677575,0.6943398641128371
0.06,1.7545363195136852,1.0,3168.0222838749382,0.4909801226368341,1.3093757567174342,0.9802650046564547,0.28674352541957476,0.6947915853173309
0.0605,1.754091501008899,1.0,3171.30053117327,0.4938353034863795,1.3091472191881035,0.9804755517224254,0.2867248430423738,0.6952423369523683
0.061,1.753646682504113,1.0,3174.5431816059568,0.4966744844842112,1.308918995972114,0.9806814341652597,0.28670616066517274,0.6956921362486641
0.0615,1.7532018639993272,1.0,3177.7511312882334,0.4994977511483851,1.3086910790389688,0.9808827912970859,0.28668747828797175,0.6961410003882562
0.062,1.7527570454945411,1.0,3180.925278895208,0.5023051889969571,1.308463460358171,0.981079757201775,0.2866687959107707,0.6965889465046653
0.0625,1.7523122269897553,1.0,3184.066525608612,0.5050968835479829,1.3082361318992244,0.9812724609704214,0.28665011353356973,0.6970359916830483
0.063,1.7518674084849692,1.0,3187.175775063771,0.5078729203195184,1.3080090856316318,0.9814610269245199,0.2866314311563687,0.6974821529603512
0.0635,1.7514225899801834,1.0,3190.2539332994293,0.5106333848296194,1.3077823135248963,0.9816455748275642,0.2866127487791677,0.6979274473254543
0.064,1.7509777714753973,1.0,3193.301908707544,0.5133783625963418,1.3075558075485212,0.9818262200857523,0.2865940664019667,0.6983718917193145
0.0645,1.7505329529706113,1.0,3196.3206119853317,0.5161079391377414,1.3073295596720096,0.9820030739384321,0.2865753840247657,0.6988155030351043
0.065,1.7500881344658255,1.0,3199.3109560889147,0.5188221999718741,1.307103561864865,0.9821762436388873,0.28655670164756464,0.6992582981183452
0.0655,1.7496433159610394,1.0,3202.273856187872,0.5215212306167956,1.3068778060965904,0.982345832626012,0.28653801927036365,0.6997002937670391
0.066,1.7491984974562536,1.0,3205.210229621285,0.5242051165905617,1.3066522843366892,0.982511940687405,0.28651933689316267,0.7001415067317931
0.0665,1.7487536789514675,1.0,3208.12099585554,0.5268739434112284,1.3064269885546644,0.9826746641143626,0.28650065451596163,0.7005819537159426
0.067,1.7483088604466817,1.0,3211.007076443478,0.5295277965968515,1.3062019107200191,0.9828340958492309,0.28648197213876064,0.7010216513756679
0.0675,1.7478640419418956,1.0,3213.869394984454,0.5321667616654867,1.3059770428022568,0.9829903256255462,0.2864632897615596,0.7014606163201083
0.068,1.7474192234371095,1.0,3216.708877086886,0.53479092413519,1.3057523767708807,0.9831434401013619,0.2864446073843586,0.7018988651114713
0.0685,1.7469744049323237,1.0,3219.526450330949,0.5374003695240172,1.3055279045953936,0.9832935229861379,0.2864259250071576,0.7023364142651405
0.069,1.7465295864275376,1.0,3222.3230442338154,0.5399951833500239,1.3053036182452993,0.9834406551615507,0.2864072426299566,0.7027732802497723
0.0695,1.7460847679227518,1.0,3225.097798564009,0.5425754077445019,1.3050795246720872,0.9835849128713106,0.28638856025275555,0.7032094503375426
