Time [s],Phi [rad],STIM [ ],Fsee [N],Gamma [ ],Lcerel [ ],q [ ],Lmtc [m],fisomrel [ ]
0.0,1.8,1.0,17.968214102746515,1.2162899569377643e-05,1.379339627921407,0.005000039366713441,0.288653,0.5411398172463282
0.0005,1.79999375,1.0,18.278177059028557,0.005621303984116468,1.3793022286238856,0.012946518128300739,0.2886527375,0.5412302913295715
0.001,1.799975,1.0,21.62135067982022,0.011198982222091374,1.3789379988719974,0.03561984289743453,0.28865195,0.5421109471010398
0.0015,1.79994375,1.0,31.07552824216026,0.016745374096048555,1.378045667679053,0.07061712544914135,0.2886506375,0.5442649016234028
0.002,1.7999,1.0,53.595260859817046,0.022260655096890423,1.3763672966018905,0.11473609914943271,0.2886488,0.5483024810222723
0.0025,1.79984375,1.0,97.14013005398427,0.027744999731440654,1.3739341461037275,0.1645945437794552,0.28864643749999996,0.5541238978879979
0.003,1.7997750000000001,1.0,160.98565849424858,0.03319858153014652,1.3712133147607093,0.2173007286303532,0.28864354999999997,0.5605888869399445
0.0035,1.79969375,1.0,237.7143382043749,0.03862157304668242,1.3685837791771074,0.27063305542757243,0.2886401375,0.5667920845903105
0.004,1.7996,1.0,321.49973521109956,0.04401414586872893,1.3661552193314788,0.32293533007089015,0.2886362,0.5724820004984589
0.0045000000000000005,1.7994937500000001,1.0,409.3018857448149,0.04937647062315838,1.363922012905768,0.3730530463844162,0.2886317375,0.577681022074662
0.005,1.799375,1.0,499.44831972571814,0.05470871696712382,1.3618576025319913,0.4202648065237281,0.28862675,0.582458786638391
0.0055,1.79924375,1.0,590.8255482030463,0.06001105363547953,1.359938148672382,0.46418975885654945,0.2886212375,0.5868766872777367
0.006,1.7991000000000001,1.0,682.5532788869142,0.06528364838406503,1.358145775448489,0.5046947228964843,0.2886152,0.5909808785982161
0.006500000000000001,1.79894375,1.0,773.897549704111,0.07052666777307486,1.3564669755062893,0.5418144595522378,0.2886086375,0.5948064265733374
0.007,1.798775,1.0,864.3259783796531,0.07574027857129399,1.3548897461753067,0.5756890261684896,0.28860155,0.5983841455982986
0.0075,1.79859375,1.0,953.2913787360696,0.08092464494723156,1.3534060383987825,0.6065209726916593,0.2885939375,0.601735242421168
0.008,1.7984,1.0,1040.3920496040369,0.08607993080541249,1.3520081517297167,0.6345422248725973,0.2885858,0.6048796591703725
0.0085,1.79819375,1.0,1125.3516561572467,0.09120629974376725,1.3506887116509236,0.6599936356182817,0.2885771375,0.6078361846958398
0.009000000000000001,1.797975,1.0,1207.9153279252116,0.0963039138193019,1.349441828080778,0.6831127172221404,0.28856795,0.6106199259807524
0.0095,1.79774375,1.0,1287.905850464281,0.10137293432651602,1.3482619432474496,0.7041252381358883,0.2885582375,0.613244958180836
0.01,1.7975,1.0,1365.18868431302,0.10641352153539572,1.3471441072115162,0.7232412372533971,0.288548,0.6157237526413244
0.0105,1.79724375,1.0,1439.6890682659575,0.11142583528533392,1.3460835763097012,0.7406529976254267,0.2885372375,0.6180681065328036
0.011,1.796975,1.0,1511.345093127316,0.1164100337288844,1.3450762741679354,0.7565349475992165,0.28852595000000003,0.6202881537193108
0.0115,1.79669375,1.0,1580.1328617625566,0.12136627438737121,1.3441183415007947,0.7710439866682467,0.2885141375,0.6223933898046634
0.012,1.7964,1.0,1646.0812366981309,0.12629471511146034,1.3432058813983763,0.7843204502968664,0.28850180000000003,0.6243932492779455
0.0125,1.79609375,1.0,1709.2027916974823,0.1311955113046256,1.3423357037835448,0.7964897610859637,0.2884889375,0.6262954908004625
0.013000000000000001,1.7957750000000001,1.0,1769.523130696352,0.13606881746952237,1.3415048856207807,0.8076636200919007,0.28847555,0.628107184620974
0.0135,1.79544375,1.0,1827.0987893087938,0.14091478801643423,1.3407105144106535,0.8179413038056159,0.2884616375,0.6298352849809563
0.014,1.7951000000000001,1.0,1882.0020391783469,0.14573357647318486,1.339949822864684,0.8274110598448636,0.2884472,0.631486345453667
0.0145,1.79474375,1.0,1934.3066521741462,0.15052533614479863,1.3392203043928588,0.8361513866882213,0.2884322375,0.6330662789783681
0.015,1.794375,1.0,1984.0724815483768,0.15529021758373238,1.338519836198427,0.8442321884877161,0.28841675,0.6345801036358105
0.0155,1.79399375,1.0,2031.3777759865086,0.16002837134244305,1.337846295484639,0.8517156498383444,0.2884007375,0.6360327826125828
0.016,1.7936,1.0,2076.306857614977,0.1647399470720921,1.3371976713738694,0.8586571817904388,0.2883842,0.637428987308801
0.0165,1.7931937500000001,1.0,2118.9573383570387,0.16942509530056954,1.3365719694988305,0.8651061959009897,0.2883671375,0.6387733078688722
0.017,1.792775,1.0,2159.4161456803477,0.17408396479951763,1.335967442757083,0.8711068792582878,0.28834955,0.6400697621405174
0.0175,1.7923437500000001,1.0,2197.750471351008,0.17871670153891164,1.3353826598031575,0.8766988257436511,0.2883314375,0.6413216565795903
0.018000000000000002,1.7919,1.0,2234.0369113293104,0.18332345148872678,1.3348161892915857,0.8819174881486054,0.2883128,0.642532268457465
0.0185,1.79144375,1.0,2268.3606827613503,0.18790436061893823,1.3342665998768983,0.8867946618399813,0.2882936375,0.6437048475980152
0.019,1.790975,1.0,2300.8079158437868,0.19245957402812156,1.3337325292239277,0.891358925018936,0.28827395,0.6448424711026794
0.0195,1.79049375,1.0,2331.466963754412,0.19698923698171414,1.3332126620401952,0.895636002550359,0.2882537375,0.6459480926533376
0.02,1.79,1.0,2360.4183632338636,0.20149349341606482,1.3327058207105713,0.8996491093847478,0.288233,0.64702435224906
0.0205,1.78949375,1.0,2387.725943904507,0.205972484404377,1.33221104230863,0.9034192471539084,0.2882117375,0.6480734163527222
0.021,1.788975,1.0,2413.45797166089,0.21042635101985407,1.331727363907945,0.9069654023705688,0.28818995000000003,0.6490974363350952
0.021500000000000002,1.78844375,1.0,2437.686780889227,0.21485523433569947,1.3312538225820902,0.9103047674133958,0.2881676375,0.6500985491860749
0.022,1.7879,1.0,2460.4837727056265,0.21925927453303637,1.3307894999655072,0.9134529434313221,0.2881448,0.6510787841599799
0.0225,1.78734375,1.0,2481.919409671424,0.2236386117022074,1.3303335182254115,0.9164241098422278,0.28812143749999997,0.6520400725026204
0.023,1.786775,1.0,2502.0663038560547,0.22799338633289884,1.3298850071421453,0.9192311678727296,0.28809755,0.6529843178023813
0.0235,1.78619375,1.0,2520.97679515025,0.23232373441532933,1.3294433135378219,0.9218859101805487,0.28807313749999996,0.6539129565217487
0.024,1.7856,1.0,2538.705331602038,0.2366297919397174,1.3290077842345533,0.9243990960895985,0.2880482,0.6548274168146352
0.0245,1.78499375,1.0,2555.3082936632213,0.24091169489628164,1.3285777660544522,0.9267805563657234,0.2880227375,0.6557291187967655
0.025,1.784375,1.0,2570.8438278947806,0.24516957927524063,1.3281526058196316,0.929039286099674,0.28799675,0.656619474788857
0.025500000000000002,1.78374375,1.0,2585.363103716045,0.2494035790286466,1.3277317305455227,0.9311835396524902,0.2879702375,0.657499721918485
0.026000000000000002,1.7831000000000001,1.0,2598.9233577274917,0.25361383047694136,1.3273145235101205,0.9332208841807371,0.2879432,0.658371182076986
0.0265,1.78244375,1.0,2611.577799775262,0.2578004682207843,1.3269004174445507,0.9351582787346483,0.2879156375,0.6592350672020999
0.027,1.781775,1.0,2623.365132567286,0.26196362274749585,1.3264889900048888,0.937002145447358,0.28788755,0.6600922812678176
0.0275,1.7810937500000001,1.0,2634.3249454555134,0.2661034245443965,1.3260798188472105,0.9387583989414456,0.2878589375,0.6609437236625332
0.028,1.7804,1.0,2644.497638469431,0.27022000409880675,1.3256724816275913,0.9404324931456534,0.2878298,0.6617902892555045
0.0285,1.77969375,1.0,2653.924350304604,0.274313491898047,1.3252665560021064,0.9420294632261568,0.2878001375,0.6626328684519407
0.029,1.778975,1.0,2662.6468902655,0.2783840184294377,1.3248616196268315,0.9435539631952911,0.28776995,0.6634723472367088
0.029500000000000002,1.7782437500000001,1.0,2670.699207976656,0.2824317101844716,1.3244573279547607,0.9450103088920332,0.2877392375,0.6643094462259467
0.03,1.7775,1.0,2678.1269831044024,0.28645670058215744,1.3240532333810422,0.9464024870216214,0.287708,0.6651450954569254
0.0305,1.77674375,1.0,2684.9613529810363,0.29045911633524424,1.3236490262491942,0.9477342106206529,0.2876762375,0.6659799356120804
0.031,1.775975,1.0,2691.229676890246,0.29443908211997805,1.3232444349978836,0.949008930844658,0.28764395,0.6668145256469995
0.0315,1.7751937500000001,1.0,2696.9596429908684,0.2983967226126051,1.3228391880657768,0.9502298548131054,0.2876111375,0.667649421712468
0.032,1.7744,1.0,2702.1792374578836,0.30233216248937134,1.3224330138915408,0.9513999658818912,0.2875778,0.6684851771454638
0.0325,1.77359375,1.0,2706.9167152591117,0.3062455264265231,1.3220256409138418,0.9525220419968123,0.2875439375,0.6693223424554511
0.033,1.772775,1.0,2711.200572566078,0.3101369391003063,1.321616797571347,0.9535986723302762,0.28750955,0.6701614653059667
0.0335,1.7719437500000002,1.0,2715.0528709749974,0.3140065206991202,1.3212062729076905,0.954632278087449,0.2874746375,0.671002966341678
0.034,1.7711000000000001,1.0,2718.500679943965,0.31785439619099043,1.3207938119399159,0.9556251164403947,0.2874392,0.6718473540212306
0.0345,1.7702437500000001,1.0,2721.576382681665,0.321680694504085,1.3203791128337676,0.9565792928165763,0.2874032375,0.6726952297826785
0.035,1.7693750000000001,1.0,2724.2968091127486,0.3254855336242011,1.319962016691062,0.9574967893592032,0.28736675,0.6735469001115708
0.035500000000000004,1.76849375,1.0,2726.6788965699616,0.3292690315371358,1.3195423646136146,0.9583794617467761,0.2873297375,0.6744026696975121
0.036000000000000004,1.7676,1.0,2728.7396786303016,0.33303130622868654,1.3191199977032417,0.9592290487125475,0.2872922,0.6752628414090657
0.0365,1.76669375,1.0,2730.496274512157,0.33677247568465024,1.318694757061759,0.9600471807435975,0.2872541375,0.6761277162670483
0.037,1.765775,1.0,2731.9658790310345,0.3404926578908243,1.3182664837909828,0.9608353880386477,0.28721555,0.676997593416212
0.0375,1.76484375,1.0,2733.165753116102,0.3441919708330058,1.3178350189927284,0.9615951077953364,0.2871764375,0.6778727700953189
0.038,1.7639,1.0,2734.113214885844,0.3478705324969919,1.3174002037688122,0.9623276908902573,0.28713679999999997,0.6787535416056012
0.0385,1.76294375,1.0,2734.8256312839735,0.3515284608685798,1.31696187922105,0.9630344080084684,0.28709663750000003,0.6796402012776164
0.039,1.761975,1.0,2735.3153744676333,0.3551658728893212,1.316519932176136,0.9637164593094224,0.28705595,0.6805329481352496
0.0395,1.7609937500000001,1.0,2735.5998681341453,0.35878288268929565,1.3160742038924473,0.9643749706078351,0.2870147375,0.6814320715362105
0.04,1.76,1.0,2735.691151270073,0.36237960397394736,1.3156245847731547,0.9650110075121322,0.286973,0.6823377598430284
0.0405,1.7589937500000001,1.0,2735.5967806182894,0.36595615017194866,1.3151710061190496,0.9656255787464999,0.2869307375,0.6832501176718941
0.041,1.7579775298901787,1.0,2735.4503719142936,0.36951263460322187,1.3147133973387242,0.9662196362422082,0.2868880562553875,0.6841692523454028
0.0415,1.7569604827044272,1.0,2735.6935291647455,0.37304917009344585,1.3142518779532082,0.9667940952253402,0.28684534027358594,0.6850948890398021
0.042,1.7559434355186756,1.0,2736.3294682880346,0.37656586883999776,1.3137867927572109,0.9673498393452014,0.2868026242917844,0.6860263032243087
0.0425,1.7549263883329238,1.0,2737.327586423824,0.3800628414615898,1.3133184207632966,0.9678876983021677,0.28675990830998277,0.6869629056453885
0.043000000000000003,1.7539093411471722,1.0,2738.6573343877035,0.38354019857693417,1.3128470409840296,0.9684084570339231,0.2867171923281812,0.6879041101643396
0.043500000000000004,1.7528922939614207,1.0,2740.289727881256,0.38699805033598333,1.3123729185460857,0.9689128574035581,0.28667447634637966,0.6888493614764046
0.044,1.7518752467756689,1.0,2742.197056808749,0.39043650681099196,1.3118963071895393,0.969401601209054,0.2866317603645781,0.689798129979364
0.0445,1.7508581995899173,1.0,2744.3570655038116,0.3938556762599494,1.311417411257415,0.9698753494999944,0.28658904438277655,0.6907499871356186
0.045,1.7498411524041657,1.0,2746.7485818344144,0.3972556665612187,1.3109364252873599,0.9703347284074311,0.28654632840097494,0.6917045262420858
0.0455,1.7488241052184141,1.0,2749.353588307475,0.40063658369424004,1.3104535151878223,0.9707803296656321,0.2865036124191734,0.6926613995775657
0.046,1.7478070580326623,1.0,2752.1539469039208,0.40399853394566665,1.3099688478802363,0.9712127152521884,0.2864608964373718,0.693620259387114
0.0465,1.7467900108469108,1.0,2755.120157502329,0.4073416313788747,1.309482692940379,0.9716324276493836,0.2864181804555702,0.6945805573034796
0.047,1.7457729636611592,1.0,2758.2410906254427,0.4106659792301919,1.3089951534041493,0.9720399689348822,0.2863754644737687,0.6955420764437061
0.0475,1.7447559164754074,1.0,2761.5056044090807,0.41397168073594587,1.3085063323074468,0.9724358166433292,0.2863327484919671,0.6965046011677525
0.048,1.7437388692896558,1.0,2764.902541557602,0.4172588391324643,1.3080163326861707,0.9728204251983686,0.28629003251016555,0.697467917087252
0.0485,1.7427218221039043,1.0,2768.4207265331565,0.42052755765607486,1.30752525757622,0.9731942272483467,0.286247316528364,0.6984318110735956
0.049,1.7417047749181525,1.0,2772.0489629815506,0.42377793954310516,1.3070332100134938,0.9735576349129981,0.2862046005465624,0.6993960712653374
0.0495,1.7406877277324009,1.0,2775.7760313929857,0.42701008802988294,1.3065402930338914,0.9739110409478161,0.2861618845647608,0.7003604870749235
0.05,1.7396706805466493,1.0,2779.5906869978926,0.43022410635273584,1.306046609673312,0.9742548198322316,0.28611916858295927,0.7013248491947428
0.0505,1.7386536333608977,1.0,2783.482572877228,0.43342009660127284,1.3055522547318896,0.9745893281117959,0.2860764526011577,0.7022889656513343
0.051000000000000004,1.737636586175146,1.0,2787.446093898686,0.43659815700493565,1.3050572799438431,0.9749149028170785,0.28603373661935616,0.7032527294428053
0.051500000000000004,1.7366195389893944,1.0,2791.468602080493,0.4397583960072848,1.3045618003127533,0.9752318709699815,0.28599102063755455,0.704215911320965
0.052000000000000005,1.7356024918036428,1.0,2795.5454252448185,0.44290091115280344,1.304065858893089,0.9755405391621903,0.285948304655753,0.7051784230089546
0.0525,1.734585444617891,1.0,2799.6718787378886,0.44602579998597475,1.3035694987393183,0.9758412004082183,0.28590558867395144,0.7061401767702775
0.053,1.7335683974321394,1.0,2803.843265009956,0.449133160051282,1.30307276290591,0.9761341348653074,0.2858628726921498,0.7071010854100066
0.0535,1.7325513502463878,1.0,2808.054873236131,0.45222308889320845,1.302575694447333,0.9764196105091972,0.28582015671034827,0.7080610622758743
0.054,1.731534303060636,1.0,2812.3019789781824,0.45529568405623716,1.3020783364180553,0.9766978837688247,0.2857774407285467,0.7090200212592482
0.0545,1.7305172558748845,1.0,2816.5798438875663,0.4583510430848514,1.3015807318725459,0.9769692001227782,0.28573472474674516,0.7099778767959809
0.055,1.729500208689133,1.0,2820.8837154497605,0.4613892635235344,1.301082923865273,0.9772337946601112,0.2856920087649436,0.7109345438671499
0.0555,1.728483161503381,1.0,2825.2091812537537,0.4644104417273056,1.3005849522836226,0.9774918923089055,0.285649292783142,0.7118899440709577
0.056,1.7274661143176295,1.0,2829.557560315812,0.46741465694333073,1.3000868057276338,0.9777437040685084,0.28560657680134044,0.7128440976664074
0.0565,1.726449067131878,1.0,2833.9177072556963,0.47040203298699534,1.2995885840238046,0.977989442773333,0.2855638608195389,0.7137968122532263
0.057,1.7254320199461264,1.0,2838.2881449107044,0.4733726606139306,1.2990903005125134,0.9782293045887681,0.2855211448377373,0.714748061668796
0.0575,1.7244149727603746,1.0,2842.6673915371452,0.47632663057976743,1.2985919685341385,0.9784634777502415,0.2854784288559357,0.7156978199199875
0.058,1.723397925574623,1.0,2847.0539607933283,0.47926403364013687,1.2980936014290585,0.9786921429479265,0.28543571287413416,0.7166460611832066
0.0585,1.7223808783888714,1.0,2851.446361727804,0.48218496055067,1.2975952125376518,0.9789154736898213,0.2853929968923326,0.717592759804432
0.059000000000000004,1.7213638312031196,1.0,2855.843098770578,0.4850895020669978,1.297096815200297,0.979133636644587,0.28535028091053105,0.7185378902992364
0.059500000000000004,1.720346784017368,1.0,2860.242671728773,0.4879777489447514,1.2965984227573728,0.9793467919654134,0.28530756492872944,0.7194814273528022
0.06,1.7193297368316165,1.0,2864.6435757863073,0.4908497919395617,1.2961000485492573,0.9795550935961111,0.2852648489469279,0.7204233458199218
0.0605,1.718312689645865,1.0,2869.0443015069113,0.49370572180705985,1.2956017059163292,0.979758689560533,0.28522213296512633,0.7213636207249874
0.061,1.7172956424601131,1.0,2873.443334841661,0.4965456293028768,1.2951034081989667,0.979957722236354,0.2851794169833247,0.7223022272619707
0.0615,1.7162785952743616,1.0,2877.839157140561,0.49936960518264367,1.2946051687375488,0.9801523286141685,0.28513670100152316,0.723239140794389
0.062,1.71526154808861,1.0,2882.2302451673618,0.5021777402019915,1.2941070008724536,0.9803426405428001,0.2850939850197216,0.7241743368552633
0.0625,1.7142445009028582,1.0,2886.6150711190035,0.5049701251165511,1.2936089179440595,0.9805287849616546,0.28505126903792005,0.7251077911470616
0.063,1.7132274537171066,1.0,2890.993319430068,0.5077468361022309,1.2931109225460131,0.9807108824912911,0.2850085530561185,0.7260394996308199
0.0635,1.712210406531355,1.0,2895.364623072578,0.5105079607764124,1.2926130177187283,0.980889050212691,0.2849658370743169,0.726969457466643
0.064,1.7111933593456032,1.0,2899.726403889529,0.513253613398863,1.292115225993386,0.9810634038491759,0.28492312109251533,0.7278976235421973
0.0645,1.7101763121598517,1.0,2904.078423130749,0.5159838766774419,1.2916175492187967,0.9812340516444841,0.2848804051107138,0.7288239954962459
0.065,1.7091592649741,1.0,2908.4204415041713,0.5186988333200082,1.2911199892437701,0.9814010979772594,0.2848376891289122,0.7297485709907754
0.0655,1.7081422177883483,1.0,2912.7522191801863,0.5213985660344211,1.2906225479171172,0.9815646435272513,0.2847949731471106,0.7306713477109787
0.066,1.7071251706025967,1.0,2917.0735157970353,0.5240831575285397,1.2901252270876475,0.9817247854332147,0.28475225716530905,0.7315923233652454
0.0665,1.7061081234168451,1.0,2921.3840904649396,0.526752690510223,1.2896280286041717,0.9818816174429845,0.2847095411835075,0.7325114956851438
0.067,1.7050910762310936,1.0,2925.68370177175,0.5294072476873303,1.2891309543154996,0.9820352300561616,0.28466682520170594,0.7334288624254097
0.0675,1.7040740290453418,1.0,2929.9721077875274,0.5320469117677206,1.2886340060704418,0.982185710659826,0.28462410921990433,0.7343444213639292
0.068,1.7030569818595902,1.0,2934.24906607008,0.534671765459253,1.288137185717808,0.982333143657663,0.2845813932381028,0.7352581703017262
0.0685,1.7020399346738386,1.0,2938.5143336697906,0.5372818914697867,1.2876404951064093,0.9824776105928678,0.2845386772563012,0.7361701070629456
0.069,1.7010228874880868,1.0,2942.7676671351055,0.5398773725071808,1.2871439360850552,0.982619190265166,0.2844959612744996,0.7370802294948398
0.0695,1.7000058403023353,1.0,2947.0088225181253,0.5424582912792943,1.2866475105025559,0.9827579588422739,0.2844532452926981,0.7379885354677523
0.07,1.6989887931165837,1.0,2951.237555379151,0.5450247304939866,1.286151220207722,0.9828939899660951,0.2844105293108965,0.7388950228751012
0.07050000000000001,1.697971745930832,1.0,2955.4536207934916,0.5475767728591165,1.2856550670493636,0.9830273548539413,0.28436781332909494,0.7397996896333661
0.07100000000000001,1.6969546987450803,1.0,2959.656773355983,0.5501145010825435,1.2851590528762906,0.9831581223950356,0.2843250973472934,0.7407025336820692
0.07150000000000001,1.6959376515593287,1.0,2963.8467671869275,0.5526379978721263,1.2846631795373138,0.9832863592425551,0.2842823813654918,0.7416035529837597
0.07200000000000001,1.6949206043735772,1.0,2968.0239453064823,0.5551472975562146,1.2841674437438786,0.983412126842633,0.2842396653836902,0.7425027548344056
