Time [s],Phi [rad],STIM [ ],Fsee [N],Gamma [ ],Lcerel [ ],q [ ],Lmtc [m],fisomrel [ ]
0.0,1.8,1.0,17.96636637886996,1.1922695363172994e-05,1.3793398349275137,0.00500003783314114,0.288653,0.5411393164450469
0.0005,1.79999375,1.0,18.276419207124903,0.0056210651272664836,1.379302423884056,0.012945854775734515,0.2886527375,0.541229818991326
0.001,1.799975,1.0,21.619514446196842,0.011198744705038939,1.3789381864073393,0.03561860318080479,0.28865195,0.542110493884938
0.0015,1.79994375,1.0,31.073323674540237,0.01674513791127953,1.3780458554849586,0.07061543265153102,0.2886506375,0.5442644488222124
0.002,1.7999,1.0,53.59226725796078,0.02226042023693079,1.3763674907907395,0.1147340954367933,0.2886488,0.54830201491034
0.0025,1.79984375,1.0,97.13619779182521,0.027744766188859894,1.3739343355713027,0.16459236166588487,0.28864643749999996,0.5541234460486237
0.003,1.7997750000000001,1.0,160.9811232015138,0.03319834929755485,1.3712134845077326,0.21729847388678733,0.28864354999999997,0.5605884850753424
0.0035,1.79969375,1.0,237.70954896514206,0.03862134211673159,1.3685839266894666,0.27063080964604586,0.2886401375,0.5667917378385648
0.004,1.7996,1.0,321.4948645354381,0.04401391623411235,1.366155348330948,0.3229331531236141,0.2886362,0.5724816992622515
0.0045000000000000005,1.7994937500000001,1.0,409.29700725599525,0.04937624227661105,1.3639221274180615,0.3730509781157598,0.2886317375,0.5776807562994649
0.005,1.799375,1.0,499.4434782858581,0.054708489901431595,1.3618577054088497,0.42026287007344637,0.28862675,0.582458549222711
0.0055,1.79924375,1.0,590.8207597778754,0.06001082784342843,1.3599382422240056,0.4641879650580762,0.2886212375,0.5868764725277202
0.006,1.7991000000000001,1.0,682.5485778628723,0.06528342385852168,1.3581458608985386,0.5046930734990202,0.2886152,0.5909806834223363
0.006500000000000001,1.79894375,1.0,773.9140459872016,0.0705264447807204,1.3564666939083783,0.5418127227376986,0.2886086375,0.594807066753924
0.007,1.798775,1.0,864.3181244734973,0.07574005649440019,1.3548898730383976,0.575687684486492,0.28860155,0.5983838584655294
0.0075,1.79859375,1.0,953.2743960291114,0.08092442397723357,1.353406299604931,0.6065198395701757,0.2885939375,0.6017346536975439
0.008,1.7984,1.0,1040.386618285954,0.08607971118220548,1.3520082316937463,0.634541097528163,0.2885858,0.6048794796551079
0.0085,1.79819375,1.0,1125.3525639540123,0.09120608149684012,1.3506886988000752,0.6599925612241679,0.2885771375,0.6078362134372133
0.009000000000000001,1.797975,1.0,1207.9158227534838,0.09630369676465539,1.349441821319581,0.6831117437654922,0.28856795,0.6106199410486419
0.0095,1.79774375,1.0,1287.9048898780416,0.10137271844682366,1.3482619559585094,0.7041243630503875,0.2885582375,0.6132449299488306
0.01,1.7975,1.0,1365.1898872352845,0.10641330700474799,1.3471440917508393,0.7232404268912749,0.288548,0.6157237868701686
0.0105,1.79724375,1.0,1439.6772130581128,0.11142562145888607,1.3460837246855073,0.7406523386017221,0.2885372375,0.6180677790427487
0.011,1.796975,1.0,1511.3356152229105,0.11640982112139041,1.3450763899439413,0.7565343339561249,0.28852595000000003,0.6202878989262022
0.0115,1.79669375,1.0,1580.1461781894488,0.12136606390260306,1.344118182416477,0.7710433046279314,0.2885141375,0.6223937389361617
0.012,1.7964,1.0,1646.0918125580874,0.12629450570312462,1.3432057576108913,0.7843198378110604,0.28850180000000003,0.6243935202255552
0.0125,1.79609375,1.0,1709.1969369188503,0.13119530242355562,1.3423357710349608,0.7964892760210606,0.2884889375,0.6262953439728919
0.013000000000000001,1.7957750000000001,1.0,1769.507400672322,0.13606860924684128,1.3415050631989636,0.807663218987163,0.28847555,0.6281067978618364
0.0135,1.79544375,1.0,1827.0955247494708,0.14091458153224265,1.340710550679281,0.8179408836873564,0.2884616375,0.6298352061728991
0.014,1.7951000000000001,1.0,1882.0117061066803,0.14573337197565078,1.3399497170452892,0.8274106216489339,0.2884472,0.6314865748750886
0.0145,1.79474375,1.0,1934.3117601985016,0.1505251323346345,1.3392202492388112,0.8361509977891991,0.2884322375,0.633066398298338
0.015,1.794375,1.0,1984.0726688392501,0.15529001436676254,1.3385198342016698,0.8442318452972961,0.28841675,0.6345801079466646
0.0155,1.79399375,1.0,2031.372995660936,0.16002816882678603,1.3378463458520655,0.8517153483461701,0.2884007375,0.6360326740893065
0.016,1.7936,1.0,2076.316412730825,0.16473974705800618,1.337197571792736,0.8586568568938107,0.2883842,0.637429201457534
0.0165,1.7931937500000001,1.0,2118.9743317917732,0.16942489721319087,1.3365717941888793,0.8651058707976065,0.2883671375,0.6387736841724448
0.017,1.792775,1.0,2159.4208907679745,0.17408376685066346,1.3359673942658525,0.8711066108627423,0.28834955,0.6400698660402206
0.0175,1.7923437500000001,1.0,2197.7412464567565,0.1787165035287472,1.3353827532490117,0.8766986137669537,0.2883314375,0.6413214567063539
0.018000000000000002,1.7919,1.0,2234.0194996764194,0.18332325371977654,1.3348163642291409,0.8819173122098276,0.2883128,0.6425318949119238
0.0185,1.79144375,1.0,2268.351827670552,0.18790416486031392,1.3342666881695915,0.8867944768506135,0.2882936375,0.6437046593754244
0.019,1.790975,1.0,2300.8122579330125,0.1924593811506315,1.3337324862360767,0.8913587208944627,0.28827395,0.6448425625978537
0.0195,1.79049375,1.0,2331.4722053313035,0.19698904579126222,1.3332126104895075,0.8956358092957275,0.2882537375,0.6459482022027034
0.02,1.79,1.0,2360.408922292154,0.20149330198273907,1.3327059129907946,0.8996489604643043,0.288233,0.6470241564443937
0.0205,1.7894937514660876,1.0,2387.703595308059,0.2059722924487448,1.3322112601640264,0.9034191351307308,0.2882117375615757,0.6480729547838955
0.021,1.7889814429136979,1.0,2413.7212013326493,0.21042615903063258,1.3317277291808975,0.9069653299886534,0.2881902206023753,0.6490966635602203
0.021500000000000002,1.788469134361308,1.0,2438.7859404078426,0.2148550449082509,1.3312547156300398,0.9103048155450012,0.28816870364317493,0.6500966625410123
0.022,1.7879568258089182,1.0,2462.92646990436,0.21925908848145464,1.3307917835299026,0.9134532840507431,0.28814718668397454,0.6510739666744454
0.0225,1.7874445172565285,1.0,2486.1730384940265,0.22363842815009882,1.3303384968989345,0.9164249865899035,0.2881256697247742,0.6520295837581399
0.023,1.7869322087041386,1.0,2508.5573908054926,0.2279932023140383,1.329894419755585,0.9192328853165243,0.28810415276557383,0.6529645147134115
0.0235,1.786419900151749,1.0,2530.112676295251,0.23232354937312807,1.3294591161183036,0.9218887878249442,0.28808263580637344,0.6538797538474048
0.024,1.7859075915993592,1.0,2550.8644476853096,0.2366296031714336,1.3290322338255012,0.9244034786412939,0.2880611188471731,0.6547761132136503
0.0245,1.7853952830469695,1.0,2570.8567689990396,0.24091150669912934,1.3286132576036456,0.926786786360924,0.28803960188797273,0.6556547414767859
0.025,1.7848829744945796,1.0,2590.1190118525697,0.2451693952286167,1.328201821326874,0.9290477250380587,0.28801808492877234,0.656516468360085
0.025500000000000002,1.7843706659421898,1.0,2608.6758348562835,0.2494034011768851,1.3277976117583616,0.9311945603810929,0.28799656796957196,0.6573620080532985
0.026000000000000002,1.7838583573898001,1.0,2626.5527344072534,0.25361365696092397,1.3274003156612841,0.933234875223227,0.2879750510103716,0.6581920704875367
0.0265,1.7833460488374104,1.0,2643.775995587875,0.2578002949977228,1.3270096197988173,0.935175635163976,0.28795353405117124,0.6590073614765083
0.027,1.7828337402850205,1.0,2660.3726452399756,0.261963447704271,1.3266252109341363,0.9370232471021496,0.28793201709197086,0.6598085828515018
0.0275,1.7823214317326308,1.0,2676.3704072145883,0.26610324749755804,1.326246775830417,0.9387836115063224,0.2879105001327705,0.6605964325901071
0.028,1.781809123180241,1.0,2691.797659796624,0.27021982679457335,1.325874001250835,0.9404621691604476,0.28788898317357015,0.6613716049386824
0.0285,1.7812968146278512,1.0,2706.670547377577,0.2743133098339158,1.3255066912327018,0.9420639566625761,0.28786746621436976,0.662134547075059
0.029,1.7807845060754615,1.0,2721.028374258866,0.2783838374825498,1.3251444429736876,0.9435936064855683,0.2878459492551694,0.6628861326636812
0.029500000000000002,1.7802721975230718,1.0,2734.890313806911,0.28243153652237785,1.3247870423518597,0.945055426015305,0.287824432295969,0.6636268403071788
0.03,1.779759888970682,1.0,2748.2740783979266,0.28645653248008124,1.3244342921062513,0.9464534072678986,0.28780291533676866,0.6643571113058534
0.0305,1.7792475804182921,1.0,2761.197740760802,0.29045895088234125,1.324085994975896,0.9477912523284078,0.2877813983775683,0.6650773847591948
0.031,1.7787352718659024,1.0,2773.6797140703025,0.2944389172558392,1.3237419536998276,0.9490723980690348,0.2877598814183679,0.6657880976231463
0.0315,1.7782229633135127,1.0,2785.738732902114,0.2983965571272563,1.323401971017079,0.95030003846983,0.28773836445916756,0.6664896847648865
0.032,1.777710654761123,1.0,2797.3938350506546,0.3023319960232739,1.3230658496666843,0.9514771448004147,0.2877168474999672,0.6671825790151256
0.0325,1.777198346208733,1.0,2808.664344210352,0.3062453594705732,1.3227333923876767,0.9526064838907934,0.2876953305407668,0.6678672112179269
0.033,1.7766860376563434,1.0,2819.569853518991,0.31013677299583553,1.3224044019190897,0.953690634692762,0.2876738135815664,0.6685440102780423
0.0335,1.7761737291039537,1.0,2830.1189295989902,0.3140063513040586,1.3220787816949218,0.9547320118438092,0.287652296622366,0.6692131963709023
0.034,1.7756614205515637,1.0,2840.3401204238608,0.317854231512856,1.321756258510481,0.9557328564102556,0.2876307796631657,0.6698753511139559
0.0345,1.775149111999174,1.0,2850.245594559285,0.3216805329844324,1.321436707422766,0.956695274698803,0.2876092627039653,0.67053074974876
0.035,1.7746368034467843,1.0,2859.8466494862423,0.32548537400702005,1.321120012628464,0.9576212378525955,0.2875877457447649,0.6711796476068086
0.035500000000000004,1.7741244948943946,1.0,2869.1547260821726,0.32926887286885154,1.3208060583242613,0.9585125914409476,0.2875662287855646,0.6718222989236309
0.036000000000000004,1.7736121863420047,1.0,2878.1814014356696,0.3330311478581594,1.3204947287068454,0.9593710649087396,0.2875447118263642,0.6724589568594566
0.0365,1.773099877789615,1.0,2886.9383819595546,0.336772317263176,1.3201859079729026,0.9601982802116161,0.2875231948671638,0.6730898735190305
0.037,1.7725875692372253,1.0,2895.4374968000584,0.340492499372134,1.3198794803191196,0.9609957597155147,0.28750167790796344,0.6737152999705676
0.0375,1.7720752606848356,1.0,2903.690691544014,0.3441918124732658,1.3195753299421837,0.961764933430736,0.2874801609487631,0.6743354862638533
0.038,1.7715629521324456,1.0,2911.7100222230692,0.3478703748548039,1.3192733410387814,0.9625071456433731,0.2874586439895627,0.6749506814474937
0.0385,1.771050643580056,1.0,2919.507649615532,0.35152830480498076,1.3189733978055995,0.963223661000391,0.28743712703036234,0.6755611335853022
0.039,1.7705383350276662,1.0,2927.086158963119,0.3551657049100008,1.318675469360297,0.9639156748594625,0.287415610071162,0.6761669171811049
0.0395,1.7700260264752763,1.0,2934.4663083881364,0.3587827117947995,1.3183793659079373,0.9645843055283662,0.2873940931119616,0.6767684290945785
0.04,1.7695137179228866,1.0,2941.6549578238164,0.362379436735527,1.318085020504205,0.9652306134720385,0.28737257615276124,0.6773658154682383
0.0405,1.7690014093704969,1.0,2948.658671163451,0.36595599038251847,1.3177923693051812,0.9658555993359218,0.28735105919356085,0.6779592155975744
0.041,1.7684891008181072,1.0,2955.4840665814154,0.3695124833861087,1.3175013484669478,0.9664602078053488,0.28732954223436047,0.6785487682451206
0.0415,1.7679767922657172,1.0,2962.137814180081,0.3730490263966328,1.3172118941455866,0.9670453313196572,0.28730802527516014,0.6791346116472231
0.042,1.7674644837133275,1.0,2968.6266337272655,0.3765657300644256,1.316923942497179,0.9676118135027373,0.28728650831595975,0.6797168835205509
0.0425,1.7669521751609378,1.0,2974.957292484229,0.38006270503982215,1.316637429677807,0.9681604523343679,0.28726499135675937,0.6802957210683414
0.043000000000000003,1.766439866608548,1.0,2981.136603123462,0.3835400619731574,1.316352291843552,0.9686920030843754,0.28724347439755904,0.6808712609863907
0.043500000000000004,1.7659275580561582,1.0,2987.1714217372532,0.3869979115147663,1.3160684651504957,0.9692071810295858,0.28722195743835865,0.6814436394687815
0.044,1.7654152495037685,1.0,2993.0686459368003,0.3904363643149838,1.3157858857547196,0.9697066639716726,0.28720044047915827,0.6820129922133521
0.0445,1.7649029409513788,1.0,2998.835213041149,0.39385553102414494,1.3155044898123056,0.970191094572336,0.2871789235199579,0.6825794544269028
0.045,1.7643906323989889,1.0,3004.4740201255904,0.3972555093620607,1.3152242488118762,0.9706610833456781,0.2871574065607575,0.6831430897990702
0.0455,1.7638783238465991,1.0,3009.9924793626055,0.40063641539791534,1.3149450953455388,0.9711172095220013,0.28713588960155717,0.6837040399164205
0.046,1.7633660152942094,1.0,3015.399147617711,0.40399836866904615,1.3146669524241001,0.9715600229563379,0.2871143726423568,0.6842624650896973
0.0465,1.7628537067418197,1.0,3020.6974889762587,0.40734147161524736,1.314389787399751,0.9719900470338454,0.28709285568315646,0.6848184361566945
0.047,1.7623413981894298,1.0,3025.8909872888407,0.4106658266763131,1.3141135676246822,0.9724077793870292,0.28707133872395607,0.6853720237056575
0.0475,1.76182908963704,1.0,3030.9831454757445,0.4139715362920376,1.3138382604510845,0.9728136934054185,0.2870498217647557,0.6859232980772871
0.048,1.7613167810846504,1.0,3035.977484854195,0.417258702902215,1.3135638332311492,0.9732082396430851,0.2870283048055553,0.686472329366671
0.0485,1.7608044725322605,1.0,3040.8775444898315,0.4205274289466395,1.313290253317067,0.9735918471318101,0.2870067878463549,0.6870191874251532
0.049,1.7602921639798708,1.0,3045.6868805714616,0.4237778168651053,1.3130174880610288,0.9739649246070364,0.2869852708871546,0.6875639418621291
0.0495,1.759779855427481,1.0,3050.4090658094146,0.4270099690974066,1.3127455048152255,0.9743278616531524,0.2869637539279542,0.6881066620467786
0.05,1.7592675468750913,1.0,3055.047688857947,0.43022398808333756,1.3124742709318478,0.9746810297740968,0.2869422369687538,0.6886474171097264
0.0505,1.7587552383227014,1.0,3059.606353760822,0.4334199762626924,1.312203753763087,0.9750247833947949,0.2869207200095535,0.6891862759446356
0.051000000000000004,1.7582429297703117,1.0,3064.0886794206667,0.43659803607526526,1.311933920661134,0.9753594607984672,0.2868992030503531,0.6897233072097364
0.051500000000000004,1.757730621217922,1.0,3068.498299092132,0.4397582699608503,1.3116647389781793,0.9756853850044594,0.2868776860911527,0.6902585793292838
0.052000000000000005,1.757218312665532,1.0,3072.8388598985453,0.44290078035924174,1.3113961760664141,0.9760028645908582,0.28685616913195233,0.6907921604949452
0.0525,1.7567060041131424,1.0,3077.1082940525257,0.4460256342355566,1.3111282483171882,0.9763121938210503,0.28683465217275195,0.6913240213618561
0.053,1.7561936955607527,1.0,3081.31562218852,0.4491329761947427,1.310860877237575,0.9766136562407365,0.2868131352135516,0.6918543208006549
0.0535,1.755681387008363,1.0,3085.462853810321,0.45222290211357935,1.3105940445080864,0.976907521703877,0.28679161825435123,0.6923830979467758
0.054,1.755169078455973,1.0,3089.5516615903384,0.4552955055637223,1.310327734753061,0.9771940483963893,0.28677010129515085,0.6929103859790617
0.0545,1.7546567699035833,1.0,3093.583724821629,0.45835088011682734,1.310061932596837,0.9774734834927523,0.2867485843359505,0.6934362179665641
0.055,1.7541444613511936,1.0,3097.560729241674,0.46138911934455024,1.309796622663752,0.9777460637177355,0.28672706737675013,0.693960626869046
0.0555,1.753632152798804,1.0,3101.484366862519,0.4644103168185468,1.3095317895781444,0.9780120158749527,0.28670555041754975,0.6944836455374723
0.056,1.753119844246414,1.0,3105.356335805385,0.46741456611047266,1.3092674179643524,0.9782715573444525,0.28668403345834936,0.6950053067144852
0.0565,1.7526075356940243,1.0,3109.178340140802,0.4704019607919837,1.3090034924467135,0.9785248965514062,0.28666251649914903,0.6955256430348655
0.057,1.7520952271416346,1.0,3112.952089733492,0.47337259443473567,1.3087399976495664,0.9787722334077876,0.28664099953994865,0.6960446870259749
0.0575,1.7515829185892446,1.0,3116.67930009372,0.47632656061038436,1.3084769181972489,0.9790137597288163,0.28661948258074826,0.6965624711081883
0.058,1.751070610036855,1.0,3120.3616922323827,0.47926395289058554,1.308214238714099,0.9792496596257874,0.28659796562154793,0.6970790275953076
0.0585,1.7505583014844652,1.0,3124.0009925222116,0.48218486484699485,1.307951943824455,0.9794801098768158,0.28657644866234755,0.697594388694961
0.059000000000000004,1.7500459929320755,1.0,3127.598932564324,0.4850893900512683,1.3076900181526545,0.9797052802768956,0.28655493170314716,0.6981085865089897
0.059500000000000004,1.7495336843796856,1.0,3131.1572490593494,0.4879776220750614,1.3074284463230361,0.9799253339685834,0.2865334147439468,0.6986216530338141
0.06,1.7490213758272959,1.0,3134.6776836844992,0.49084965449003004,1.3071672129599377,0.9801404277545246,0.2865118977847464,0.6991336201607918
0.0605,1.7485090672749062,1.0,3138.1619829753536,0.49370558086783006,1.3069063026876975,0.9803507123929498,0.28649038082554606,0.6996445196765543
0.061,1.7479967587225165,1.0,3141.6082440367477,0.49654544131300904,1.3066457310906383,0.9805563303638867,0.2864688638663457,0.7001543227164795
0.0615,1.7474844501701265,1.0,3145.021100939146,0.49936938332887026,1.3063854583707846,0.9807574241353345,0.2864473469071453,0.7006631087338147
0.062,1.7469721416177368,1.0,3148.402349609902,0.5021775074573748,1.3061254688422086,0.9809541284358608,0.28642582994794497,0.7011709098410013
0.0625,1.7464598330653471,1.0,3151.752711772036,0.5049698974755238,1.3058657559438787,0.981146572178431,0.2864043129887446,0.701677740245152
0.063,1.7459475245129572,1.0,3155.0729113155353,0.5077466371603182,1.3056063131147635,0.981334879516678,0.2863827960295442,0.702183614108422
0.0635,1.7454352159605675,1.0,3158.3636742570307,0.5105078102887592,1.3053471337938314,0.9815191700559008,0.2863612790703438,0.7026885455481251
0.064,1.7449229074081778,1.0,3161.6257287012672,0.5132535006378478,1.3050882114200513,0.9816995590532068,0.2863397621111435,0.7031925486368434
0.0645,1.744410598855788,1.0,3164.859804803143,0.5159837919845851,1.3048295394323912,0.9818761576074299,0.2863182451519431,0.7036956374025392
0.065,1.7438982903033982,1.0,3168.066634730918,0.5186987681059722,1.3045711112698202,0.9820490728394223,0.2862967281927427,0.704197825828657
0.0655,1.7433859817510085,1.0,3171.2469526301215,0.5213985127790102,1.3043129203713064,0.9822184080632679,0.2862752112335424,0.7046991278542313
0.066,1.7428736731986187,1.0,3174.401494588601,0.5240831097806999,1.3040549601758187,0.9823842629489407,0.286253694274342,0.7051995573739838
0.0665,1.742361364646229,1.0,3177.5309986025873,0.5267526428880428,1.3037972241223255,0.9825467336768928,0.2862321773151416,0.7056991282384233
0.067,1.741849056093839,1.0,3180.63620454358,0.5294071958780396,1.303539705649795,0.9827059130850242,0.2862106603559412,0.7061978542539407
0.0675,1.7413367475414494,1.0,3183.71785412611,0.5320468525276917,1.3032823981971964,0.9828618908084651,0.28618914339674084,0.7066957491828993
0.068,1.7408244389890597,1.0,3186.776690876674,0.5346716966139999,1.3030252952034977,0.9830147534125657,0.2861676264375405,0.7071928267437279
0.0685,1.7403121304366698,1.0,3189.8134601034067,0.5372818119139654,1.3027683901076679,0.9831645845194723,0.2861461094783401,0.7076891006110047
0.069,1.73979982188428,1.0,3192.8289088669953,0.5398772822045892,1.302511676348675,0.9833114649286377,0.28612459251913974,0.7081845844155437
0.0695,1.7392875133318904,1.0,3195.8237859522606,0.5424581912628725,1.302255147365488,0.9834554727316001,0.2861030755599394,0.7086792917444744
0.07,1.7387752047795006,1.0,3198.7988418405903,0.5450246228658163,1.3019987965970754,0.9835966834213351,0.286081558600739,0.7091732361413211
