Time [s],Phi [rad],STIM [ ],Fsee [N],Gamma [ ],Lcerel [ ],q [ ],Lmtc [m],fisomrel [ ]
0.0,1.8,1.0,17.968475877014008,1.0431609204122355e-05,1.379339598594903,0.0050000289923713805,0.288653,0.5411398881946997
0.0005,1.79999375,1.0,18.277831318124157,0.005619582404920272,1.3793022670276465,0.012941710132172372,0.2886527375,0.5412301984301275
0.001,1.799975,1.0,21.61970032648603,0.01119727029959345,1.378938167422942,0.03561081875061841,0.28865195,0.5421105397644848
0.0015,1.79994375,1.0,31.0711374899815,0.016743671776081385,1.3780460417314007,0.07060477206511337,0.2886506375,0.5442639997806763
0.002,1.7999,1.0,53.58540563370658,0.022258962325593865,1.376367935910779,0.11472146833802493,0.2886488,0.5483009464867977
0.0025,1.79984375,1.0,97.12330080781308,0.027743316455251497,1.3739349570115917,0.16457862645087776,0.28864643749999996,0.554121964045724
0.003,1.7997750000000001,1.0,160.9636134699044,0.03319690769580609,1.3712141398847393,0.2172843073180185,0.28864354999999997,0.560586933512861
0.0035,1.79969375,1.0,237.68934659230402,0.038619908601230345,1.3685845489548953,0.2706167223832295,0.2886401375,0.5667902751011364
0.004,1.7996,1.0,321.4730939061304,0.04401249075950046,1.3661559249363324,0.32291951502904304,0.2886362,0.5724803527870501
0.0045000000000000005,1.7994937500000001,1.0,409.2742610681276,0.04937482479778069,1.3639226613461264,0.3730380336279051,0.2886317375,0.5776795170878591
0.005,1.799375,1.0,499.42010474066825,0.05470708037350764,1.3618582020856507,0.42025076089921215,0.28862675,0.5824574030081008
0.0055,1.79924375,1.0,590.7970570603791,0.060009426221889386,1.3599387053103782,0.46417675482150017,0.2886212375,0.5868754095009208
0.006,1.7991000000000001,1.0,682.5247297554308,0.06528203009899025,1.358146294387765,0.5046827723874896,0.2886152,0.5909796932918127
0.006500000000000001,1.79894375,1.0,773.8878999306338,0.07052505883739792,1.3564671402330335,0.5418033304145612,0.2886086375,0.5948060520857235
0.007,1.798775,1.0,864.2923115548665,0.07573867832979965,1.3548902899950652,0.5756791251193358,0.28860155,0.5983829147551611
0.0075,1.79859375,1.0,953.2496841478996,0.08092305353872409,1.3534066796954496,0.6065120485382116,0.2885939375,0.6017337970237178
0.008,1.7984,1.0,1040.3502866783642,0.08607834806062117,1.3520087666008993,0.6345341235337281,0.2885858,0.6048782788141378
0.0085,1.79819375,1.0,1125.3199605526397,0.09120472606213668,1.3506891603398479,0.6599862027396411,0.2885771375,0.6078351811866469
0.009000000000000001,1.797975,1.0,1207.9066309411492,0.09630234950902773,1.3494419469141956,0.6831057953633861,0.28856795,0.6106196611505628
0.0095,1.79774375,1.0,1287.8995360034357,0.1013713788646444,1.3482620268043126,0.7041189285366101,0.2885582375,0.6132447725961487
0.01,1.7975,1.0,1365.1736462273732,0.10641197459233682,1.3471443004905688,0.7232355520636948,0.288548,0.6157233247350564
0.0105,1.79724375,1.0,1439.6636170575805,0.11142429669813414,1.3460838948492428,0.7406478819421408,0.2885372375,0.6180674034629408
0.011,1.796975,1.0,1511.3256210736615,0.11640850398586491,1.3450765120264565,0.7565302474129472,0.28852595000000003,0.6202876302540015
0.0115,1.79669375,1.0,1580.1250287372748,0.12136475363581191,1.344118435078123,0.7710396295405983,0.2885141375,0.62239318443681
0.012,1.7964,1.0,1646.0624621232032,0.12629320232956062,1.3432061011505083,0.7843165160554378,0.28850180000000003,0.6243927682814638
0.0125,1.79609375,1.0,1709.1785136505612,0.1311940067009228,1.3423359826561607,0.796486180274862,0.2884889375,0.6262948819478342
0.013000000000000001,1.7957750000000001,1.0,1769.510378717085,0.1360673217343085,1.3415050295793884,0.8076602806604342,0.28847555,0.6281068710841232
0.0135,1.79544375,1.0,1827.0943237851673,0.14091330095126023,1.340710564021772,0.8179381959887839,0.2884616375,0.629835177181014
0.014,1.7951000000000001,1.0,1881.9942540674183,0.14573209787332062,1.3399499080848918,0.8274082083097005,0.2884472,0.6314861606921991
0.0145,1.79474375,1.0,1934.2852334823026,0.15052386480625238,1.3392205356626243,0.8361488042589986,0.2884322375,0.6330657786503897
0.015,1.794375,1.0,1984.0599374506808,0.15528875479887339,1.3385199699345487,0.8442297690037022,0.28841675,0.634579814909159
0.0155,1.79399375,1.0,2031.3777235095522,0.16002691737586627,1.3378462960375568,0.8517133660789682,0.2884007375,0.6360327814212485
0.016,1.7936,1.0,2076.3137640280343,0.16473850205977447,1.3371975993968603,0.858655039982662,0.2883842,0.637429142095008
0.0165,1.7931937500000001,1.0,2118.9565742953528,0.16942365825813718,1.3365719773811624,0.8651042280158938,0.2883671375,0.6387732909494079
0.017,1.792775,1.0,2159.3911665745636,0.17408253389127012,1.335967698025655,0.8711051170963287,0.28834955,0.6400692151892293
0.0175,1.7923437500000001,1.0,2197.723054762656,0.17871527858494934,1.335382937526864,0.8766971909611303,0.2883314375,0.6413210625505474
0.018000000000000002,1.7919,1.0,2234.0180551971607,0.18332203733350072,1.334816378742077,0.8819159405674498,0.2883128,0.6425318639223279
0.0185,1.79144375,1.0,2268.3501869892116,0.18790295513125002,1.3342667045285814,0.8867931944450166,0.2882936375,0.6437046245012821
0.019,1.790975,1.0,2300.800994854698,0.1924581769725232,1.333732597743665,0.8913575429147386,0.28827395,0.6448423252655139
0.0195,1.79049375,1.0,2331.4540372783717,0.19698784717892445,1.333212789171789,0.8956347207379488,0.2882537375,0.6459478224883828
0.02,1.79,1.0,2360.3927372990197,0.20149210975283577,1.3327060711909908,0.8996479343558512,0.288233,0.647023820767396
0.0205,1.78949375,1.0,2387.700975488365,0.20597110862073859,1.3322112849625256,0.9034181423198686,0.2882117375,0.6480729022434555
0.021,1.788975,1.0,2413.4398849893178,0.21042498390066666,1.3317275387423797,0.9069643495682482,0.28818995000000003,0.649097066453836
0.021500000000000002,1.78844375,1.0,2437.6744913712446,0.21485387571065376,1.3312539407865396,0.9103037647129162,0.2881676375,0.6500982994687109
0.022,1.7879,1.0,2460.4733915577826,0.2192579241687336,1.3307895993509917,0.9134519945841464,0.2881448,0.6510785744936556
0.0225,1.78734375,1.0,2481.9084503859963,0.22363726939293999,1.3303336226917222,0.9164232154869708,0.28812143749999997,0.6520398524214379
0.023,1.786775,1.0,2502.0384433228323,0.2279920484443605,1.3298852716439284,0.9192303519457268,0.28809755,0.652983761327843
0.0235,1.78619375,1.0,2520.9476451557466,0.23232240336414195,1.3294435892415803,0.9218851408205838,0.28807313749999996,0.6539123772564569
0.024,1.7856,1.0,2538.684435959274,0.23662846923059966,1.3290079811763333,0.9243983543950521,0.2880482,0.6548270035786783
0.0245,1.78499375,1.0,2555.2983174012033,0.24091038098891532,1.3285778597748226,0.9267798361195229,0.2880227375,0.6557289224036895
0.025,1.784375,1.0,2570.8404599279675,0.24516827358427065,1.3281526373636832,0.9290385924141018,0.28799675,0.6566194087731475
0.025500000000000002,1.78374375,1.0,2585.3635615503204,0.24940228196184738,1.3277317262695503,0.9311828752766476,0.2879702375,0.6574997308558055
0.026000000000000002,1.7831000000000001,1.0,2598.9217142855864,0.2536125410668272,1.3273145388190588,0.9332202557309425,0.2879432,0.6583711501201112
0.0265,1.78244375,1.0,2611.5627200582335,0.2577991817525597,1.3269005575740964,0.9351576985275848,0.2879156375,0.6592347750565845
0.027,1.781775,1.0,2623.3441246011575,0.2619623421890474,1.3264891847842266,0.9370016011012957,0.28788755,0.6600918756981222
0.0275,1.7810937500000001,1.0,2634.3030352483734,0.2661021518400222,1.3260800215688417,0.9387578820709889,0.2878589375,0.6609433020843869
0.028,1.7804,1.0,2644.477305953927,0.2702187401509911,1.3256726693896046,0.9404319990457437,0.2878298,0.6617898992750297
0.0285,1.77969375,1.0,2653.9055063903807,0.27431223656746084,1.3252667297081777,0.9420289905428803,0.2878001375,0.6626325081152655
0.029,1.778975,1.0,2662.626857825011,0.2783827705349382,1.3248618039862237,0.9435535136275918,0.28776995,0.663471965276838
0.029500000000000002,1.7782437500000001,1.0,2670.6811725177627,0.28243047149893,1.3244574936854052,0.9450098777198574,0.2877392375,0.664309103288856
0.03,1.7775,1.0,2678.1008293289406,0.2864554650023477,1.3240534733788345,0.946402083411208,0.287708,0.6651445994614573
0.0305,1.77674375,1.0,2684.920795506788,0.29045787980432114,1.3236493979477724,0.9477338392512438,0.2876762375,0.665979168392999
0.031,1.775975,1.0,2691.187728177912,0.29443785078285345,1.323244818998855,0.9490085768732791,0.28764395,0.666813734025502
0.0315,1.7751937500000001,1.0,2696.9251683652988,0.2983955006857759,1.3228395033128766,0.9502295084898976,0.2876111375,0.6676487726425229
0.032,1.7744,1.0,2702.1569311124886,0.30233095226091994,1.3224332176706317,0.9513996221480642,0.2875778,0.6684847581076627
0.0325,1.77359375,1.0,2706.907080706212,0.30624432825611697,1.322025728852915,0.9525217001171828,0.2875439375,0.669322161851878
0.033,1.772775,1.0,2711.1999071045816,0.3101357514191983,1.3216168036405203,0.9535983355574009,0.28750955,0.6701614528573183
0.0335,1.7719437500000002,1.0,2715.0599035712416,0.31400534449799533,1.3212062088142424,0.9546319476473656,0.2874746375,0.6710030976376955
0.034,1.7711000000000001,1.0,2718.511745515749,0.3178532302403394,1.320793711154876,0.9556247953301881,0.2874392,0.671847560215185
0.0345,1.7702437500000001,1.0,2721.5802705396,0.32167953139406197,1.320379077443215,0.9565789898184525,0.2874032375,0.67269530209386
0.035,1.7693750000000001,1.0,2724.29045968815,0.3254843707069943,1.319962074460054,0.957496505983367,0.28736675,0.673546782229652
0.035500000000000004,1.76849375,1.0,2726.657117903877,0.32926786408314024,1.319542562676236,0.9583792009804246,0.2873297375,0.6744022660660196
0.036000000000000004,1.7676,1.0,2728.707409953026,0.3330301386847715,1.319120291055052,0.9592288060135616,0.2872922,0.6752622443779941
0.0365,1.76669375,1.0,2730.4611745727734,0.33677131441598385,1.3186950760497593,0.9600469497223497,0.2872541375,0.676127067926142
0.037,1.765775,1.0,2731.932952576267,0.3404915070410167,1.3182667829458157,0.9608351645370565,0.28721555,0.6769969862031922
0.0375,1.76484375,1.0,2733.1373461602925,0.3441908323241094,1.3178352770286785,0.9615948897484958,0.2871764375,0.6778722470539005
0.038,1.7639,1.0,2734.089011439028,0.3478694060295012,1.3174004235838048,0.962327478197987,0.28713679999999997,0.6787530966480271
0.0385,1.76294375,1.0,2734.802651380198,0.3515273439214315,1.3169620878966524,0.9630342024160996,0.28709663750000003,0.6796397794521518
0.039,1.761975,1.0,2735.293009143496,0.3551647617641395,1.316520135252678,0.9637162602611135,0.28705595,0.6805325382003392
0.0395,1.7609937500000001,1.0,2735.5748618217754,0.3587817753218646,1.3160744309373396,0.9643747801029292,0.2870147375,0.6814316138636383
0.04,1.76,1.0,2735.6630145841414,0.36237850035884617,1.315624840236094,0.9650108255935584,0.286973,0.6823372456184318
0.0405,1.7589937500000001,1.0,2735.567827981566,0.36595504851158733,1.315171268994849,0.9656254028897114,0.2869307375,0.6832495892862773
0.041,1.757975,1.0,2735.3007626354897,0.36951153553973515,1.3147136132381818,0.9662194615932821,0.28688795,0.6841688190132913
0.0415,1.75694375,1.0,2734.876977414097,0.37304807849540655,1.3142517355416128,0.966793895975245,0.2868446375,0.685095174454988
0.042,1.7559,1.0,2734.3046910928215,0.3765647866485639,1.3137855615960148,0.9673495552277851,0.28680079999999997,0.6860287670085256
0.0425,1.75484375,1.0,2733.5921315817,0.3800617692691695,1.313315017092261,0.9678872424576564,0.2867564375,0.6869697068382533
0.043000000000000003,1.753775,1.0,2732.747533763825,0.3835391356271859,1.3128400277212242,0.968407717651352,0.28671155,0.6879181028551775
0.043500000000000004,1.75269375,1.0,2731.7791374573217,0.3869969949925753,1.3123605191737773,0.9689117004206276,0.28666613750000003,0.6888740626960725
0.044,1.7516,1.0,2730.695185498162,0.3904354566353001,1.3118764171407935,0.9693998725466911,0.2866202,0.6898376927022378
0.0445,1.75049375,1.0,2729.503921947093,0.3938546298253229,1.3113876473131454,0.9698728803396826,0.2865737375,0.6908090978979088
0.045,1.7493750000000001,1.0,2728.213590417509,0.39725462383260585,1.3108941353817063,0.9703313368285421,0.28652675,0.6917883819683077
0.0455,1.74824375,1.0,2726.830436359467,0.4006355445430352,1.3103958251906311,0.9707758246892864,0.2864792375,0.6927756113017448
0.046,1.7471,1.0,2725.356162360908,0.4039974909838708,1.3098927018967406,0.9712068993397756,0.2864312,0.6937707694870469
0.0465,1.7459437500000001,1.0,2723.809159589835,0.40734059021334845,1.3093845988316963,0.9716250811060116,0.28638263750000004,0.6947741390489488
0.047,1.744775,1.0,2722.1934363021483,0.4106649442738187,1.3088714800800458,0.9720308706940656,0.28633355,0.6957857423251335
0.0475,1.74359375,1.0,2720.512998809219,0.4139706552076319,1.3083533097263376,0.9724247443077114,0.28628393750000003,0.6968056007041241
0.048,1.7424,1.0,2718.771850990316,0.4172578250571384,1.3078300518551196,0.9728071550731819,0.2862338,0.6978337346137578
0.0485,1.74119375,1.0,2716.9739938350726,0.4205265558646887,1.3073016705509395,0.9731785343682968,0.2861831375,0.6988701635095722
0.049,1.739975,1.0,2715.1234250128523,0.4237769496726331,1.3067681298983456,0.9735392930631988,0.28613195,0.6999149058631116
0.0495,1.73874375,1.0,2713.224138472151,0.4270091085233221,1.3062293939818856,0.9738898226793398,0.2860802375,0.7009679791501502
0.05,1.7375,1.0,2711.2801240681097,0.43022313445910604,1.305685426886108,0.9742304964727921,0.286028,0.7020293998388327
0.0505,1.73624375,1.0,2709.295367218039,0.4334191295223354,1.3051361926955607,0.9745616704474682,0.2859752375,0.7030991833777349
0.051000000000000004,1.734975,1.0,2707.2738485867503,0.43659719575536055,1.3045816554947913,0.9748836843033681,0.28592195,0.7041773441838401
0.051500000000000004,1.73369375,1.0,2705.219543799149,0.4397574352005319,1.3040217793683484,0.975196862324563,0.2858681375,0.7052638956304313
0.052000000000000005,1.7324,1.0,2703.136423182469,0.4428999499001999,1.3034565284007795,0.9755015142112424,0.2858138,0.7063588500349072
0.0525,1.73109375,1.0,2701.025354696454,0.4460248249521582,1.3028858949737194,0.9757979358613299,0.28575893750000003,0.7074621639858706
0.053,1.729775,1.0,2698.892567731932,0.44913217689159046,1.3023098224522047,0.9760864103432247,0.28570355000000003,0.7085738879110857
0.0535,1.72844375,1.0,2696.741402377986,0.4522221090313365,1.3017282805365493,0.9763672085690109,0.2856476375,0.7096940201672749
0.054,1.7271,1.0,2694.5735139917297,0.45529471558923407,1.3011412542933347,0.9766405897179992,0.2855912,0.7108225285798377
0.0545,1.7257437500000001,1.0,2692.390555487178,0.4583500907831208,1.3005487287891426,0.9769068018370203,0.2855342375,0.7119593801761173
0.055,1.724375,1.0,2690.194177284763,0.46138832883083436,1.2999506890905543,0.9771660824095798,0.28547675,0.713104541180171
0.0555,1.72299375,1.0,2687.9860272654987,0.4644095239502125,1.2993471202641516,0.977418658891317,0.2854187375,0.7142579770075241
0.056,1.7216,1.0,2685.7677507298927,0.4674137703590929,1.2987380073765158,0.9776647492140351,0.2853602,0.7154196522599132
0.0565,1.72019375,1.0,2683.540990362264,0.47040116227531326,1.2981233354942283,0.9779045622603844,0.28530113749999997,0.7165895307200121
0.057,1.718775,1.0,2681.3073861996745,0.4733717939167113,1.297503089683871,0.9781382983111344,0.28524155,0.7177675753461434
0.0575,1.71734375,1.0,2679.068575605611,0.47632575950112466,1.296877255012025,0.9783661494668251,0.2851814375,0.7189537482669803
0.058,1.7159,1.0,2676.8261932490677,0.47926315324639107,1.2962458165452722,0.978588300045463,0.2851208,0.7201480107762276
0.0585,1.71444375,1.0,2674.5818710885756,0.48218406937034824,1.2956087593501937,0.9788049269577982,0.2850596375,0.7213503233272935
0.059000000000000004,1.7129750000000001,1.0,2672.337238360648,0.4850886020908339,1.2949660684933713,0.9790162000616164,0.28499795,0.7225606455279459
0.059500000000000004,1.71149375,1.0,2670.0938015843863,0.4879768446046213,1.2943177301441093,0.9792222824719611,0.2849357375,0.7237789340651124
0.06,1.71,1.0,2667.848369820047,0.49084884634782333,1.2936637736371164,0.9794233296682615,0.284873,0.7250050639451802
0.0605,1.7084937500000001,1.0,2665.6095994318102,0.4937047594554693,1.2930041193859783,0.9796194935762366,0.2848097375,0.7262391135932634
0.061,1.7069750000000001,1.0,2663.3777811397294,0.4965446693947533,1.2923387646492988,0.979810918945743,0.28474595,0.7274810162095724
0.0615,1.7054437500000001,1.0,2661.1532051845,0.4993686616328694,1.2916677066856816,0.9799977449933106,0.2846816375,0.7287307043262601
0.062,1.7039,1.0,2658.936161330909,0.5021768216370118,1.2909909427537314,0.980180105653842,0.2846168,0.7299881098064243
0.0625,1.70234375,1.0,2656.7269388709874,0.5049692348743745,1.2903084701120517,0.9803581298190248,0.2845514375,0.7312531638431121
0.063,1.7007750000000001,1.0,2654.525826628409,0.5077459868121517,1.2896202860192465,0.9805319415632472,0.28448555,0.7325257969583223
0.0635,1.69919375,1.0,2652.33311296208,0.5105071629175374,1.28892638773392,0.9807016603577672,0.28441913750000003,0.733805939002004
0.064,1.6976,1.0,2650.1490857700564,0.5132528486577258,1.2882267725146763,0.9808674012738192,0.2843522,0.7350935191510619
0.0645,1.69599375,1.0,2647.9740324944696,0.515983129499911,1.2875214376201192,0.9810292751753149,0.2842847375,0.7363884659083544
0.065,1.694375,1.0,2645.8082401254233,0.5186980909112872,1.2868103803088529,0.9811873889017353,0.28421675,0.7376907071016938
0.0655,1.69274375,1.0,2643.651995205638,0.5213978183590482,1.286093597839481,0.9813418454417855,0.2841482375,0.7390001698828487
0.066,1.6911,1.0,2641.505583835552,0.5240823973103884,1.285371087470608,0.9814927440983394,0.2840792,0.7403167807265391
0.0665,1.6894437500000001,1.0,2639.369291678043,0.5267519132325018,1.2846428464608373,0.9816401806451693,0.2840096375,0.7416404654294395
0.067,1.687775,1.0,2637.2434039633777,0.5294064515925825,1.2839088720687735,0.9817842474759275,0.28393955,0.7429711491091735
0.0675,1.68609375,1.0,2635.128205494941,0.5320460978578246,1.2831691615530203,0.9819250337458106,0.2838689375,0.7443087562033147
0.068,1.6844000000000001,1.0,2633.023980654363,0.5346709374954223,1.2824237121721818,0.9820626255063176,0.2837978,0.7456532104683822
0.0685,1.68269375,1.0,2630.9310134070292,0.5372810559725696,1.2816725211848619,0.9821971058334833,0.2837261375,0.7470044349788378
0.069,1.680975,1.0,2628.849587308217,0.5398765387564607,1.2809155858496648,0.9823285549499435,0.28365395,0.7483623521260829
0.0695,1.67924375,1.0,2626.7806875669444,0.5424574201913991,1.280152896920174,0.9824570468011382,0.28358123749999997,0.7497268952399054
0.07,1.6775,1.0,2624.724808516721,0.5450238404639082,1.2793844496861497,0.9825826596967088,0.283508,0.7510979887549977
0.07050000000000001,1.67574375,1.0,2622.681734079671,0.5475758839920146,1.2786102460182962,0.9827054661198826,0.2834342375,0.7524755446863025
0.07100000000000001,1.673975,1.0,2620.6512736407126,0.5501136270585524,1.2778302875548007,0.9828255356233395,0.28335995,0.753859474863574
0.07150000000000001,1.67219375,1.0,2618.6332369391753,0.5526371459463557,1.2770445759338511,0.9829429354557689,0.2832851375,0.7552496905154101
0.07200000000000001,1.6704,1.0,2616.627434064721,0.5551465169382584,1.2762531127936347,0.9830577306520806,0.2832098,0.7566461022698575
0.0725,1.66859375,1.0,2614.633675453514,0.5576418163170948,1.2754558997723395,0.9831699841194939,0.2831339375,0.7580486201550091
0.073,1.6667750000000001,1.0,2612.6517718845184,0.5601231203656987,1.2746529385081529,0.9832797567197252,0.28305755,0.7594571535996072
0.0735,1.66494375,1.0,2610.6815344754,0.5625905053669041,1.2738442306392623,0.9833871073474716,0.2829806375,0.7608716114336432
0.074,1.6631,1.0,2608.722774679072,0.5650440476035454,1.2730297778038555,0.983492093005381,0.2829032,0.7622919018889582
0.0745,1.6612437500000001,1.0,2606.7753042800373,0.5674838233584564,1.27220958164012,0.9835947688756858,0.2828252375,0.7637179325998433
0.075,1.659375,1.0,2604.8389353906678,0.569909908914471,1.2713836437862434,0.9836951883886726,0.28274675,0.7651496106036396
0.0755,1.65749375,1.0,2602.9134804477944,0.5723223805544236,1.2705519658804134,0.9837934032881417,0.2826677375,0.7665868423413381
