Time [s],Phi [rad],STIM [ ],Fsee [N],Gamma [ ],Lcerel [ ],q [ ],Lmtc [m],fisomrel [ ]
0.0,1.8,1.0,17.973891505600495,7.987057540587463e-05,1.3793389919313426,0.005001672542835668,0.288653,0.5411413558689822
0.0005,1.79999375,1.0,18.306357601964418,0.005688631873456158,1.3792990996423777,0.01313562503388976,0.2886527375,0.5412378603650562
0.001,1.799975,1.0,21.699893051466457,0.011265932455207066,1.378929984747089,0.03597358823758582,0.28865195,0.5421303146032235
0.0015,1.79994375,1.0,31.261675958057253,0.016811948791319378,1.3780298338150163,0.07110075976549543,0.2886506375,0.5443030763577525
0.002,1.7999,1.0,53.9960591654028,0.02232685636070421,1.376341346421082,0.11530850444804035,0.2886488,0.5483647671363747
0.0025,1.79984375,1.0,97.81335317749597,0.02781082965855068,1.373901764634627,0.1652170485755539,0.28864643749999996,0.5542011173568623
0.003,1.7997750000000001,1.0,161.86124046733966,0.0332640422034064,1.3711805881314154,0.2179428029920703,0.28864354999999997,0.5606663615893386
0.0035,1.79969375,1.0,238.70341516941366,0.03868666653728288,1.3685533466001434,0.2712715829723161,0.2886401375,0.5668636183349317
0.004,1.7996,1.0,322.5518629685672,0.044078874236292594,1.3661273766750686,0.32355353933149344,0.2886362,0.572547015462476
0.0045000000000000005,1.7994937500000001,1.0,410.39126627299004,0.0494408359158766,1.363896459050737,0.3736398479503993,0.2886317375,0.5777403287319367
0.005,1.799375,1.0,500.55980043539046,0.05477272122226689,1.3618339976078333,0.4208137749622211,0.28862675,0.5825132594870359
0.0055,1.79924375,1.0,591.9467015394549,0.060074698876135695,1.3599162550877129,0.46469800118722954,0.2886212375,0.5869269429962897
0.006,1.7991000000000001,1.0,683.6755950939678,0.06534693662490193,1.3581253836318539,0.5051617828372568,0.2886152,0.5910274540769691
0.006500000000000001,1.79894375,1.0,775.0310913215505,0.07058960129198535,1.3564476324912502,0.5422413083206208,0.2886086375,0.5948503995260925
0.007,1.798775,1.0,865.4102481753688,0.07580285859339321,1.3548722376399889,0.5760783709618821,0.28860155,0.5984237721696022
0.0075,1.79859375,1.0,954.3584086525136,0.08098687398176604,1.3533896313804032,0.6068750725580211,0.2885939375,0.6017722207679296
0.008,1.7984,1.0,1041.4557299423784,0.08614181104399038,1.351992495433274,0.6348638002336712,0.2885858,0.604914805990614
0.0085,1.79819375,1.0,1126.3824681608658,0.09126783279828207,1.3506741227256516,0.6602858203511601,0.2885771375,0.6078688126613351
0.009000000000000001,1.797975,1.0,1208.9203557828173,0.09636510168769638,1.349428098511184,0.6833782252562207,0.28856795,0.6106505228662574
0.0095,1.79774375,1.0,1288.8807994214662,0.10143377908738106,1.3482490445744804,0.7043667149020191,0.2885582375,0.6132736063551072
0.01,1.7975,1.0,1366.1285573287132,0.10647402502962688,1.3471320294766913,0.723461127050884,0.288548,0.6157504914266375
0.0105,1.79724375,1.0,1440.5676725367985,0.11148599836660764,1.3460725816930836,0.7408536553163662,0.2885372375,0.6180923730876402
0.011,1.796975,1.0,1512.2049062777594,0.11646985996923379,1.3450657727513737,0.7567180943560508,0.28852595000000003,0.6203112642713562
0.0115,1.79669375,1.0,1580.9883176481562,0.12142576621448004,1.344108123182508,0.7712113396048872,0.2885141375,0.6224158149228696
0.012,1.7964,1.0,1646.902273003068,0.12635387311039875,1.3431962725804834,0.7844737752177818,0.28850180000000003,0.6244142808892301
0.0125,1.79609375,1.0,1709.97275484829,0.13125433666504233,1.3423268605392968,0.7966305589296201,0.2884889375,0.626314797682745
0.013000000000000001,1.7957750000000001,1.0,1770.2571262000704,0.1361273125860318,1.3414966003324533,0.8077930800971103,0.28847555,0.6281252294686755
0.0135,1.79544375,1.0,1827.810088654827,0.1409729554549183,1.340702612783914,0.8180604961852044,0.2884616375,0.629852454216245
0.014,1.7951000000000001,1.0,1882.684745716593,0.14579141810938642,1.3399423502598762,0.8275210161365758,0.2884472,0.6315025462365806
0.0145,1.79474375,1.0,1934.9492725706148,0.15058285272619767,1.339213366251324,0.8362530428691298,0.2884322375,0.6330812887641747
0.015,1.794375,1.0,1984.676546942634,0.15534741056215864,1.338513396589177,0.8443263293184611,0.28841675,0.6345940061532482
0.0155,1.79399375,1.0,2031.9665388050526,0.1600852441161222,1.337840092496647,0.8518029022935015,0.2884007375,0.6360461476462278
0.016,1.7936,1.0,2076.8892855769914,0.16479650246233377,1.3371916018674797,0.8587381542961047,0.2883842,0.637442039636617
0.0165,1.7931937500000001,1.0,2119.516694609123,0.16948133384791825,1.336566199362024,0.8651815104325776,0.2883671375,0.638785693389676
0.017,1.792775,1.0,2159.9331533315367,0.17413988652000073,1.3359621596406284,0.8711770972311332,0.28834955,0.6400810819183831
0.0175,1.7923437500000001,1.0,2198.2269883873037,0.17877230794240143,1.335377833072331,0.8767643894252519,0.2883314375,0.641331980496517
0.018000000000000002,1.7919,1.0,2234.492087789444,0.1833787459456086,1.334811616305498,0.8819787490361294,0.2883128,0.6425420331214924
0.0185,1.79144375,1.0,2268.808857319678,0.18795934630672873,1.3342621314251601,0.8868519492921559,0.2882936375,0.6437143733900159
0.019,1.790975,1.0,2301.247382853275,0.1925142527927464,1.333728178588036,0.891412575092569,0.28827395,0.6448517309193622
0.0195,1.79049375,1.0,2331.8842782734628,0.19704360917064614,1.333208557950844,0.895686344781377,0.2882537375,0.6459568141209155
0.02,1.79,1.0,2360.802138067692,0.20154755920741252,1.3327020696703031,0.8996964356168898,0.288233,0.647032311342783
0.0205,1.78949375,1.0,2388.072939278538,0.20602624453168308,1.3322076701884327,0.9034638030501431,0.2882117375,0.6480805608034871
0.021,1.788975,1.0,2413.7903339739382,0.21047981004480848,1.3317241512511744,0.9070073589429488,0.28818995000000003,0.6491042330251531
0.021500000000000002,1.78844375,1.0,2438.0158267526176,0.21490839531950864,1.331250657826268,0.9103443015504326,0.2881676375,0.6501052349797983
0.022,1.7879,1.0,2460.809784814435,0.2193121392554434,1.3307863789460848,0.9134902370638163,0.2881448,0.6510853683154886
0.0225,1.78734375,1.0,2482.235671993607,0.22369118075227262,1.3303305036429973,0.9164593410352437,0.28812143749999997,0.6520464233512875
0.023,1.786775,1.0,2502.3597888662357,0.22804565870965618,1.3298822209493772,0.9192645093345506,0.28809755,0.6529901795328643
0.0235,1.78619375,1.0,2521.2447399987814,0.23237571070806284,1.329440779361514,0.9219175018348039,0.28807313749999996,0.653918280910964
0.024,1.7856,1.0,2538.9554957378,0.23668147514296398,1.3290054264963522,0.9244290489040161,0.2880482,0.6548323639539331
0.0245,1.78499375,1.0,2555.5552576673213,0.2409630897722314,1.3285754460496135,0.9268089614819697,0.2880227375,0.6557339803995457
0.025,1.784375,1.0,2571.09039493648,0.24522068824166723,1.3281502965526701,0.9290662450054841,0.28799675,0.6566243076288095
0.025500000000000002,1.78374375,1.0,2585.608732216765,0.2494544041970736,1.3277294365368937,0.9312091505576082,0.2879702375,0.6575045166683998
0.026000000000000002,1.7831000000000001,1.0,2599.1594271844797,0.2536643712842526,1.3273123245336562,0.9332452483015823,0.2879432,0.658375772348133
0.0265,1.78244375,1.0,2611.792854503691,0.2578507231490064,1.3268984190743294,0.9351814928705772,0.2879156375,0.6592392334397453
0.027,1.781775,1.0,2623.5555226799806,0.26201359212678793,1.3264872248024513,0.9370242882610874,0.28788755,0.6600959567627348
0.0275,1.7810937500000001,1.0,2634.4907260230543,0.26615311034417954,1.3260782850092017,0.9387795384499756,0.2878589375,0.660946913410261
0.028,1.7804,1.0,2644.6537196635954,0.2702694123318087,1.3256710403091034,0.940452673527721,0.2878298,0.6617932828570994
0.0285,1.77969375,1.0,2654.0781449228243,0.27436262613080936,1.3252651383229468,0.9420487342759758,0.2878001375,0.6626358092849308
0.029,1.778975,1.0,2662.798250839046,0.27843287978231585,1.3248602266715221,0.9435723798143995,0.28776995,0.6634752331853548
0.029500000000000002,1.7782437500000001,1.0,2670.8488409492343,0.28248030132746227,1.3244559529756195,0.9450279214251273,0.2877392375,0.6643122913861053
0.03,1.7775,1.0,2678.2652228238962,0.28650501880738266,1.3240519648560292,0.9464193529755854,0.287708,0.6651477170693458
0.0305,1.77674375,1.0,2685.083160355263,0.2905071602632112,1.3236479099335412,0.9477503783187644,0.2876762375,0.6659822397820485
0.031,1.775975,1.0,2691.33474341584,0.29448685229051297,1.3232434732258849,0.9490244403080754,0.28764395,0.6668165083446003
0.0315,1.7751937500000001,1.0,2697.0490523959634,0.2984442214394795,1.3228383704867162,0.9502447422709146,0.2876111375,0.6676511050429905
0.032,1.7744,1.0,2702.2629988758836,0.3023793958424016,1.322432248698596,0.95141425614165,0.2875778,0.668486750635098
0.0325,1.77359375,1.0,2707.0000128709185,0.3062924979315062,1.3220248806240837,0.9525357627207071,0.2875439375,0.6693239038872596
0.033,1.772775,1.0,2711.2837448206906,0.3101836501390202,1.3216160390257394,0.9536118538228223,0.28750955,0.6701630211779147
0.0335,1.7719437500000002,1.0,2715.138043999395,0.3140529748971706,1.3212054966661233,0.9546449473927349,0.2874746375,0.6710045564778988
0.034,1.7711000000000001,1.0,2718.586938070571,0.31790059463818426,1.3207930263077947,0.9556373012404359,0.2874392,0.6718489613274443
0.0345,1.7702437500000001,1.0,2721.654613786999,0.3217266317942881,1.320378400713314,0.9565910255366468,0.2874032375,0.6726966848098829
0.035,1.7693750000000001,1.0,2724.3613854342984,0.32553120566546906,1.319961429159913,0.9575080973452313,0.28736675,0.6735480990113072
0.035500000000000004,1.76849375,1.0,2726.728268593967,0.32931443782637987,1.3195419156105086,0.9583903676251185,0.2873297375,0.6744035847192813
0.036000000000000004,1.7676,1.0,2728.7819466789915,0.33307645444958656,1.3191196134506173,0.9592395665460072,0.2872922,0.6752636234410987
0.0365,1.76669375,1.0,2730.537251042935,0.33681737176929405,1.3186943846699317,0.9600573253681597,0.2872541375,0.6761284731500434
0.037,1.765775,1.0,2732.009083430054,0.34053730601970755,1.318266091258145,0.9608451750259219,0.28721555,0.6769983901634635
0.0375,1.76484375,1.0,2733.2124078684824,0.344236373435032,1.3178345952049497,0.9616045534167744,0.2871764375,0.6778736291164087
0.038,1.7639,1.0,2734.1622429848985,0.3479146902494724,1.317399758500039,0.9623368120831887,0.28713679999999997,0.6787544429340464
0.0385,1.76294375,1.0,2734.873654742142,0.35157237269723396,1.3169614431331054,0.9630432223439791,0.28709663750000003,0.6796410828028674
0.039,1.761975,1.0,2735.3617495982794,0.35520953701252156,1.3165195110938421,0.9637249809260033,0.28705595,0.6805337981406734
0.0395,1.7609937500000001,1.0,2735.641668089139,0.35882629942954025,1.3160738243719416,0.9643832151418965,0.2870147375,0.6814328365653539
0.04,1.76,1.0,2735.7261199840423,0.3624227721064128,1.3156242672816434,0.9650189888988081,0.286973,0.6823383989251459
0.0405,1.7589937500000001,1.0,2735.625229145373,0.36599906522622844,1.315170747821674,0.9656333075205044,0.2869307375,0.6832506368543582
0.041,1.757975,1.0,2735.3588677751295,0.36955530745279364,1.3147130856475473,0.9662271155613912,0.28688795,0.6841698779406874
0.0415,1.75694375,1.0,2734.935251533888,0.3730916077151716,1.3142512063756648,0.966801310766912,0.2868446375,0.685096234985457
0.042,1.7559,1.0,2734.3626075930856,0.37660807494242526,1.313785035622428,0.9673567416424487,0.28680079999999997,0.6860298195772689
0.0425,1.75484375,1.0,2733.6491723408044,0.38010481806361773,1.3133144990042394,0.9678942106543955,0.2867564375,0.6869707420718192
0.043000000000000003,1.753775,1.0,2732.8031892105582,0.38358194600781215,1.3128395221375002,0.9684144771917355,0.28671155,0.6879191115713665
0.043500000000000004,1.75269375,1.0,2731.8329066333117,0.38703956770407144,1.3123600306386123,0.9689182603082833,0.28666613750000003,0.6888750359038431
0.044,1.7516,1.0,2730.7465761109543,0.3904777920814588,1.3118759501239774,0.9694062412638766,0.2866202,0.6898386216016148
0.0445,1.75049375,1.0,2729.552450413931,0.3938967280690372,1.3113872062099974,0.969879065881108,0.2865737375,0.6908099738798871
0.045,1.7493750000000001,1.0,2728.258781900257,0.39729648459586975,1.3108937245130738,0.9703373467326748,0.28652675,0.6917891966147607
0.0455,1.74824375,1.0,2726.873820957838,0.40067717059101954,1.3103954306496088,0.9707816651730683,0.2864792375,0.6927763923209307
0.046,1.7471,1.0,2725.405814569524,0.40403889498354956,1.309892250236004,0.9712125732270743,0.2864312,0.6937716621290366
0.0465,1.7459437500000001,1.0,2723.8555047873483,0.4073817460849617,1.3093841771333188,0.9716305975810448,0.28638263750000004,0.6947749711082245
0.047,1.744775,1.0,2722.2348868149224,0.410705851939654,1.3088711028066848,0.9720362367725813,0.28633355,0.6957864854942039
0.0475,1.74359375,1.0,2720.551252084231,0.4140113242159584,1.308352961445908,0.972429965780784,0.28628393750000003,0.696806285610773
0.048,1.7424,1.0,2718.808263256094,0.4172982634696722,1.3078297202301328,0.9728122374576594,0.2862338,0.6978343856601983
0.0485,1.74119375,1.0,2717.009580431491,0.42056677025659256,1.307301346338504,0.9731834829296376,0.2861831375,0.6988707989111699
0.049,1.739975,1.0,2715.158860766035,0.42381694513251683,1.3067678069501658,0.9735441128364591,0.28613195,0.6999155376880926
0.0495,1.73874375,1.0,2713.259758109245,0.4270488886532422,1.306229069244263,0.9738945184884769,0.2860802375,0.7009686133603072
0.05,1.7375,1.0,2711.31592266764,0.4302627013745659,1.3056851003999403,0.9742350729484308,0.286028,0.7020300363312448
0.0505,1.73624375,1.0,2709.331000691058,0.4334584838522852,1.3051358675963423,0.9745661320432661,0.2859752375,0.7030998160275111
0.051000000000000004,1.734975,1.0,2707.3086341838425,0.4366363366421973,1.304581338012613,0.9748880353111016,0.28592195,0.7041779608879031
0.051500000000000004,1.73369375,1.0,2705.25246063903,0.43979636030009955,1.3040214788278974,0.975201106888043,0.2858681375,0.7052644783523543
0.052000000000000005,1.7324,1.0,2703.1661127967423,0.4429386553817891,1.3034562572213402,0.9755056563391615,0.2858138,0.7063593748508159
0.0525,1.73109375,1.0,2701.0532184267636,0.44606332244306324,1.3028856403720859,0.9758019794376086,0.28575893750000003,0.7074626557920647
0.053,1.729775,1.0,2698.917400134638,0.4491704620397192,1.3023095954592787,0.9760903588955262,0.28570355000000003,0.7085743255524466
0.0535,1.72844375,1.0,2696.7622751915483,0.45226017472755425,1.3017280896620635,0.9763710650501234,0.2856476375,0.7096943874645464
0.054,1.7271,1.0,2694.591240846766,0.4553325602115687,1.3011410921222808,0.9766443565430963,0.2855912,0.7108228400363521
0.0545,1.7257437500000001,1.0,2692.405729339647,0.45838771366489006,1.3005485899174931,0.976910481532189,0.2855342375,0.7119596463603526
0.055,1.724375,1.0,2690.207325297531,0.4614257309876591,1.2999505687103294,0.9771696775906344,0.28547675,0.713104771461575
0.0555,1.72299375,1.0,2687.9977203313865,0.46444670734401033,1.2993470131611111,0.9774221721274866,0.2854187375,0.7142581814780662
0.056,1.7216,1.0,2685.77860338906,0.4674507378980781,1.2987379079301593,0.9776681830284524,0.2853602,0.7154198417267592
0.0565,1.72019375,1.0,2683.5516607202953,0.4704379178139971,1.2981232376777954,0.9779079191306478,0.28530113749999997,0.7165897166980508
0.057,1.718775,1.0,2681.3186459373514,0.47340834208697685,1.297502986421548,0.9781415806178189,0.28524155,0.7177677712699626
0.0575,1.71734375,1.0,2679.0816483849367,0.4763621049696192,1.2968771350723511,0.9783693592542261,0.2851814375,0.718953975354697
0.058,1.7159,1.0,2676.842010428019,0.47929929969394774,1.2962456713656445,0.9785914393311048,0.2851208,0.7201482850673424
0.0585,1.71444375,1.0,2674.6009621776807,0.4822200188715388,1.2956085840471896,0.9788079977398814,0.2850596375,0.7213506538189275
0.059000000000000004,1.7129750000000001,1.0,2672.348871365651,0.4851243546092014,1.2949659616289377,0.979019209794867,0.28499795,0.7225608465571303
0.059500000000000004,1.71149375,1.0,2670.1003778536683,0.48801239943292807,1.2943176697070342,0.9792252317261038,0.2849357375,0.7237790475070827
0.06,1.7100000456976652,1.0,2667.8774468952884,0.49088424572049755,1.29366352693945,0.9794262110589281,0.2848730019193019,0.7250055259741164
0.0605,1.7085011145482767,1.0,2665.995276726055,0.4937399832780896,1.293003898014676,0.9796223187032543,0.2848100468110276,0.7262395272583078
0.061,1.7070021833988884,1.0,2664.6704514834532,0.49657970191188383,1.2923391476212023,0.9798137190427858,0.2847470917027533,0.7274803021942249
0.0615,1.7055032522495,1.0,2663.8629198200942,0.4994034914280599,1.291669640447519,0.9800005702448794,0.284684136594479,0.7287271072742826
0.062,1.7040043211001115,1.0,2663.532812907027,0.5022114416327974,1.2909957411821165,0.9801830245535322,0.2846211814862047,0.7299792047636182
0.0625,1.702505389950723,1.0,2663.6449528344474,0.5050036409159581,1.2903177726899848,0.980361226286024,0.2845582263779304,0.7312359402433875
0.063,1.7010064588013345,1.0,2664.1539900295397,0.5077801794411391,1.2896361524614732,0.9805353194619103,0.284495271269656,0.7324964897554663
0.0635,1.6995075276519462,1.0,2665.0310245411233,0.5105411442140164,1.288951147390308,0.9807054349425914,0.28443231616138176,0.7337603138451039
0.064,1.6980085965025578,1.0,2666.249008353205,0.5132866218503354,1.2882630079018338,0.9808716979974339,0.2843693610531074,0.7350269077659035
0.0645,1.6965096653531693,1.0,2667.7809375370034,0.5160166989658411,1.2875719844213962,0.98103422940785,0.28430640594483314,0.7362957709691973
0.065,1.6950107342037808,1.0,2669.5998355419692,0.5187314621762789,1.2868783273743398,0.9811931456675854,0.2842434508365588,0.7375664071521082
0.0655,1.6935118030543923,1.0,2671.684729214449,0.5214309957080795,1.2861822321409124,0.9813485562795338,0.28418049572828447,0.7388384247667248
0.066,1.6920128719050038,1.0,2674.0081580062038,0.5241153872092458,1.285483953756444,0.981500570088545,0.28411754062001016,0.740111327001239
0.0665,1.6905139407556156,1.0,2676.543434422164,0.5267847245881657,1.2847837400322282,0.981649291845174,0.28405458551173585,0.7413846346085978
0.067,1.689015009606227,1.0,2679.2768343273965,0.5294390904884184,1.2840817196281025,0.9817948165887981,0.28399163040346154,0.7426580885623093
0.0675,1.6875160784568386,1.0,2682.1946277439706,0.5320785675535833,1.2833780212039043,0.9819372361112738,0.2839286752951872,0.7439314320744883
0.068,1.6860171473074501,1.0,2685.283073880792,0.5347032384272393,1.282672773419471,0.9820766390939242,0.2838657201869129,0.7452044106101545
0.0685,1.6845182161580616,1.0,2688.5284165303538,0.5373131857529659,1.2819661049346396,0.9822131112378635,0.28380276507863855,0.7464767719004715
0.069,1.6830192850086734,1.0,2691.916879832793,0.5399084921743422,1.2812581444092477,0.9823467353880293,0.2837398099703643,0.7477482659549324
0.0695,1.6815203538592849,1.0,2695.434664406078,0.5424892403349476,1.2805490205031325,0.9824775916512646,0.28367685486208993,0.7490186450724903
0.07,1.6800214227098964,1.0,2699.0679438449406,0.5450555128783612,1.2798388618761314,0.9826057575087732,0.2836138997538157,0.7502876638516309
0.07050000000000001,1.678522491560508,1.0,2702.810156859177,0.5476073868387296,1.2791277305501436,0.9827313045030807,0.2835509446455413,0.7515551978250204
0.07100000000000001,1.6770235604111194,1.0,2706.644673458978,0.5501449500837241,1.2784157803415375,0.9828543067244153,0.283487989537267,0.7528209606403469
0.07150000000000001,1.675524629261731,1.0,2710.5630749875786,0.5526682828725707,1.2777030897790296,0.9829748320097204,0.2834250344289927,0.7540848020637125
0.07200000000000001,1.6740256981123427,1.0,2714.55947951037,0.5551774632106519,1.276989714078867,0.9830929448436726,0.2833620793207184,0.7553466144595264
0.0725,1.6725267669629542,1.0,2718.627990545533,0.5576725691033497,1.2762757084572975,0.9832087076655474,0.2832991242124441,0.7566062911875584
0.073,1.6710278358135657,1.0,2722.7626962592335,0.560153678556047,1.275561128130569,0.9833221809489637,0.28323616910416977,0.7578637266052556
0.0735,1.6695289046641772,1.0,2726.957668728255,0.562620869574126,1.2748460283149283,0.9834334232780361,0.28317321399589546,0.7591188160698649
