Time [s],Phi [rad],STIM [ ],Fsee [N],Gamma [ ],Lcerel [ ],q [ ],Lmtc [m],fisomrel [ ]
0.0,1.8,1.0,18.290933955196124,0.0005805237811453434,1.3793036344643814,0.005086970030422019,0.288653,0.5412268905679558
0.0005,1.79999375,1.0,18.777810912798913,0.006186476810666154,1.3792471053625248,0.014600020831796748,0.2886527375,0.5413636258741901
0.001,1.799975,1.0,22.542972529479574,0.011760984875993023,1.3788448574223724,0.03864331741552818,0.28865195,0.5423360140453518
0.0015,1.79994375,1.0,32.93074910586664,0.017304224359397793,1.3778899161448144,0.07471525613843048,0.2886506375,0.5446403420792895
0.002,1.7999,1.0,57.29879262723445,0.022816370651896952,1.3761310721251605,0.11956346197274441,0.2886488,0.5488693130802849
0.0025,1.79984375,1.0,103.12485116529685,0.028297598161176014,1.3736500977457045,0.16982959828095276,0.28864643749999996,0.554801034612964
0.003,1.7997750000000001,1.0,168.6092000727718,0.03374808031993179,1.3709312830224252,0.222690753187188,0.28864354999999997,0.5612563242198263
0.0035,1.79969375,1.0,246.23898072979412,0.03916798958310735,1.3683235274252623,0.27598649084151483,0.2886401375,0.567403632477717
0.004,1.7996,1.0,330.5186996801406,0.04455749744067566,1.3659180057764908,0.32811352843445424,0.2886362,0.5730357558946303
0.0045000000000000005,1.7994937500000001,1.0,418.60958885003885,0.04991677442052062,1.3637047628940675,0.37796474127647856,0.2886317375,0.5781850939036037
0.005,1.799375,1.0,508.91612250049315,0.055245990071616034,1.3616573640229135,0.42485759120342326,0.28862675,0.5829207622704013
0.0055,1.79924375,1.0,600.3672783347423,0.06054531309395489,1.3597524785798734,0.46844019398480813,0.2886212375,0.5873027874860899
0.006,1.7991000000000001,1.0,692.0847300083335,0.0658149110553621,1.3579731241547632,0.5085998637061213,0.2886152,0.5913751351494849
0.006500000000000001,1.79894375,1.0,783.3797960051777,0.07105495075045516,1.3563056018505137,0.5453842325543555,0.2886086375,0.5951732081949719
0.007,1.798775,1.0,873.6652816683526,0.07626559798318673,1.3547392953312638,0.5789420510290342,0.28860155,0.5987245929460409
0.0075,1.79859375,1.0,962.4499373851046,0.08144701746692969,1.3532655105769824,0.6094796016820737,0.2885939375,0.6020519101938264
0.008,1.7984,1.0,1049.3737561478601,0.0865993735620725,1.3518762005034,0.6372302740792164,0.2885858,0.6051758275487598
0.0085,1.79819375,1.0,1134.1116390509703,0.0917228288666156,1.3505649449528632,0.6624355604828327,0.2885771375,0.608112944420268
0.009000000000000001,1.797975,1.0,1216.4264181226013,0.09681754544587945,1.3493257390145146,0.6853319712341153,0.28856795,0.6108785971363624
0.0095,1.79774375,1.0,1296.1594999088904,0.10188368499877605,1.3481529003952595,0.7061437257113978,0.2885582375,0.613487110798369
0.01,1.7975,1.0,1373.1767899019403,0.10692140750838687,1.3470415890216294,0.7250791736331418,0.288548,0.6159506871471381
0.0105,1.79724375,1.0,1447.3911292177977,0.111930872161189,1.345987308677624,0.7423288819259738,0.2885372375,0.6182805555931588
0.011,1.796975,1.0,1518.7627031157983,0.11691223748377982,1.3449857764440099,0.7580653564567348,0.28852595000000003,0.620487289704476
0.0115,1.79669375,1.0,1587.2893392359683,0.12186566194436238,1.3440329432483833,0.7724436922021246,0.2885141375,0.6225807843107611
0.012,1.7964,1.0,1652.9573662600267,0.12679130140549988,1.3431254819694047,0.7856028860049653,0.28850180000000003,0.624569207982346
0.0125,1.79609375,1.0,1715.7907108055033,0.1316893115776,1.3422601039292155,0.7976668467361085,0.2884889375,0.6264605269718196
0.013000000000000001,1.7957750000000001,1.0,1775.831569488049,0.13655984738450436,1.3414337323946999,0.8087458916111215,0.28847555,0.628262137700971
0.0135,1.79544375,1.0,1833.157413881829,0.141403064277415,1.3406432599918556,0.818938048816418,0.2884616375,0.6299814075960493
0.014,1.7951000000000001,1.0,1887.817335182231,0.146219114729783,1.3398862145250074,0.8283306372938515,0.2884472,0.6316242384434332
0.0145,1.79474375,1.0,1939.86807980925,0.15100815044052662,1.3391602977712942,0.8370012963017867,0.2884322375,0.6331960855092063
0.015,1.794375,1.0,1989.3872919846908,0.1557703231085641,1.3384632115078543,0.8450190409919999,0.28841675,0.6347023420146349
0.0155,1.79399375,1.0,2036.45387334697,0.16050578343298108,1.337792845089727,0.8524453336298642,0.2884007375,0.6361479394329965
0.016,1.7936,1.0,2081.1714324191908,0.16521468262336608,1.3371470035396082,0.8593348882187462,0.2883842,0.6375379400646155
0.0165,1.7931937500000001,1.0,2123.611497891772,0.1698971687466572,1.336523981873613,0.8657366420298084,0.2883671375,0.6388763061987507
0.017,1.792775,1.0,2163.8483931210594,0.1745533892980869,1.3359221717114542,0.8716943189999063,0.28834955,0.6401667555888402
0.0175,1.7923437500000001,1.0,2201.967323054227,0.17918349177288756,1.3353399646728439,0.8772470174484563,0.2883314375,0.6414129722360198
0.018000000000000002,1.7919,1.0,2238.051346237808,0.1837876225374451,1.334775873828082,0.8824297854570502,0.2883128,0.64261834917935
0.0185,1.79144375,1.0,2272.1980844570303,0.18836592898089358,1.334228353964382,0.8872740468886533,0.2882936375,0.6437863756577162
0.019,1.790975,1.0,2304.4807986770493,0.19291855512246897,1.3336961811792072,0.891808113092991,0.28827395,0.6449198299311663
0.0195,1.79049375,1.0,2334.9708683639,0.19744564412249865,1.3331782142046849,0.8960574795840376,0.2882537375,0.6460212933015853
0.02,1.79,1.0,2363.7454402050917,0.20194733914131008,1.3326733117729432,0.9000451257100461,0.288233,0.6470933279146114
0.0205,1.78949375,1.0,2390.883237988339,0.20642378271726383,1.332180368572391,0.9037918045777712,0.2882117375,0.6481384015787963
0.021,1.788975,1.0,2416.4610739162827,0.2108751170322685,1.331698343561601,0.9073162959597278,0.28818995000000003,0.64915882933192
0.021500000000000002,1.78844375,1.0,2440.557623361754,0.21530148464277024,1.331226218076068,0.9106356133130775,0.2881676375,0.650156863708626
0.022,1.7879,1.0,2463.2310548106675,0.21970302395652366,1.330763205811375,0.9137652347487808,0.2881448,0.6511342528105293
0.0225,1.78734375,1.0,2484.542554684973,0.22407987338128343,1.330308520463105,0.9167192212930201,0.28812143749999997,0.6520927337674569
0.023,1.786775,1.0,2504.556076905157,0.22843217132480415,1.3298613757268414,0.9195103662415057,0.28809755,0.6530340331747309
0.0235,1.78619375,1.0,2523.338106161513,0.23276005619484036,1.3294209852981675,0.9221503270072727,0.28807313749999996,0.653959867491022
0.024,1.7856,1.0,2540.9454706819183,0.2370636632449654,1.3289866755854767,0.9246497604855904,0.2880482,0.6548717069107663
0.0245,1.78499375,1.0,2557.4478108662443,0.2413431332780293,1.3285576709332354,0.9270183903404854,0.2880227375,0.6557712272669892
0.025,1.784375,1.0,2572.8926472782214,0.24559860019043533,1.3281334206031767,0.9292651504878088,0.28799675,0.6566596246277383
0.025500000000000002,1.78374375,1.0,2587.3263195972254,0.2498301970697948,1.3277133984445544,0.931398231231049,0.2879702375,0.6575380372446453
0.026000000000000002,1.7831000000000001,1.0,2600.7964692207897,0.25403805700371923,1.3272970783066214,0.9334251478215461,0.2879432,0.6584075973595325
0.0265,1.78244375,1.0,2613.3519271553223,0.2582223130798199,1.3268839340386311,0.9353528052073834,0.2879156375,0.6592694313374613
0.027,1.781775,1.0,2625.042608045246,0.26238309838570845,1.3264734394898372,0.9371875557820007,0.28788755,0.6601246597821289
0.0275,1.7810937500000001,1.0,2635.9086721056374,0.26652054286997995,1.326065167833587,0.938935264627454,0.2878589375,0.6609741910894601
0.028,1.7804,1.0,2645.9991113765104,0.27063478090730697,1.3256586181669303,0.940601331598192,0.2878298,0.6618190829515481
0.0285,1.77969375,1.0,2655.360413058617,0.2747259447996813,1.3252533199707115,0.9421907462098388,0.2878001375,0.6626603247705037
0.029,1.778975,1.0,2664.02429367302,0.2787941616492951,1.3248489449881318,0.9437081388719638,0.28776995,0.6634986063140872
0.029500000000000002,1.7782437500000001,1.0,2672.0229987563694,0.2828395585583402,1.3244451649623927,0.9451577946846713,0.2877392375,0.6643346139430031
0.03,1.7775,1.0,2679.3892562513797,0.2868622626290086,1.324041651636695,0.9465436836066418,0.287708,0.6651690306267946
0.0305,1.77674375,1.0,2686.156232285799,0.2908624009634923,1.3236380767542406,0.947869487629373,0.2876762375,0.6660025359528581
0.031,1.775975,1.0,2692.35748934113,0.29484010066398336,1.32323411205823,0.9491386252872429,0.28764395,0.6668358061285956
0.0315,1.7751937500000001,1.0,2698.0269468094384,0.29879548883267365,1.322829429291865,0.9503542737934786,0.2876111375,0.6676695139766862
0.032,1.7744,1.0,2703.191289662253,0.3027286879353508,1.322423769197163,0.9515193960595579,0.2875778,0.6685041870430313
0.0325,1.77359375,1.0,2707.8846004198913,0.3066398281783648,1.32201680737046,0.952636745784639,0.2875439375,0.6693404839634443
0.033,1.772775,1.0,2712.1308629391806,0.3105290326418938,1.3216083138219537,0.9537088987851203,0.28750955,0.6701788663284431
0.0335,1.7719437500000002,1.0,2715.9513629567587,0.314396422343535,1.3211980849326057,0.9547382607206912,0.2874746375,0.6710197392717685
0.034,1.7711000000000001,1.0,2719.367554398853,0.31824211830088583,1.3207859170833776,0.9557270780927305,0.2874392,0.6718635057429095
0.0345,1.7702437500000001,1.0,2722.4010421899316,0.3220662415315436,1.3203716066552305,0.9566774506508142,0.2874032375,0.6727105664832471
0.035,1.7693750000000001,1.0,2725.0735659802904,0.3258689130531058,1.3199549500291263,0.9575913426935998,0.28736675,0.6735613199995513
0.035500000000000004,1.76849375,1.0,2727.406984793653,0.3296502538831696,1.3195357435860262,0.9584705933741757,0.2873297375,0.6744161625348384
0.036000000000000004,1.7676,1.0,2729.422777376994,0.3334103845342132,1.3191137881173831,0.9593169264459362,0.2872922,0.6752754790605036
0.0365,1.76669375,1.0,2731.1312907977967,0.3371494136464354,1.3186889863922966,0.9601319661561836,0.2872541375,0.6761394450007991
0.037,1.765775,1.0,2732.568752132265,0.3408674790327319,1.3182610066780929,0.9609172200769264,0.28721555,0.6770087105492568
0.0375,1.76484375,1.0,2733.7473443398626,0.34456469469621026,1.3178297363755938,0.9616741205651703,0.2871764375,0.6778834779190708
0.038,1.7639,1.0,2734.6792991502166,0.3482411746399782,1.3173950628856221,0.9624040140420059,0.28713679999999997,0.6787639478821172
0.0385,1.76294375,1.0,2735.3768913258223,0.3518970328671434,1.3169568736090003,0.9631081670880859,0.28709663750000003,0.6796503197449242
0.039,1.761975,1.0,2735.852433204898,0.3555323833808135,1.3165150559465504,0.9637877720429815,0.28705595,0.6805427913238269
0.0395,1.7609937500000001,1.0,2736.1182695267858,0.3591473401840961,1.3160694972990947,0.9644439521537144,0.2870147375,0.6814415589193161
0.04,1.76,1.0,2736.1867725368825,0.3627420172800991,1.315620085067456,0.9650777663132014,0.286973,0.6823468172895786
0.0405,1.7589937500000001,1.0,2736.070337373983,0.36631652867192993,1.3151667066524566,0.9656902134252829,0.2869307375,0.6832587596232282
0.041,1.757975,1.0,2735.7813777378788,0.3698709883626964,1.3147092494549184,0.9662822364293893,0.28688795,0.6841775775112307
0.0415,1.75694375,1.0,2735.332321838249,0.3734055103555062,1.3142476008756645,0.9668547260146675,0.2868446375,0.6851034609180136
0.042,1.7559,1.0,2734.734507912018,0.3769202065031493,1.313781658311002,0.9674085245296686,0.28680079999999997,0.686036578149227
0.0425,1.75484375,1.0,2733.9955633607265,0.3804151817367687,1.3133113529307976,0.9679444303189667,0.2867564375,0.6869770284587793
0.043000000000000003,1.753775,1.0,2733.1319177837945,0.38389056121846526,1.3128365360151695,0.9684631956543635,0.28671155,0.6879250693049412
0.043500000000000004,1.75269375,1.0,2732.149998901746,0.38734645157220166,1.3123571497042543,0.9689655372188247,0.28666613750000003,0.6888807749637567
0.044,1.7516,1.0,2731.0562378384725,0.39078295942194047,1.3118731361381881,0.969452134067712,0.2866202,0.6898442186075612
0.0445,1.75049375,1.0,2729.8570677788953,0.39420019139164447,1.3113844374571078,0.9699236299727905,0.2865737375,0.690815472288012
0.045,1.7493750000000001,1.0,2728.5589227000396,0.39759825410527627,1.3108909958011496,0.9703806355979852,0.28652675,0.691794606918908
0.0455,1.74824375,1.0,2727.1682361763637,0.40097725418679847,1.31039275331045,0.9708237305204841,0.2864792375,0.692781692258795
0.046,1.7471,1.0,2725.6914402599373,0.4043372982601737,1.3098896521251455,0.9712534651095786,0.2864312,0.6937767968933555
0.0465,1.7459437500000001,1.0,2724.1349644340553,0.40767849294936476,1.3093816343853728,0.9716703622745225,0.28638263750000004,0.6947799882175878
0.047,1.744775,1.0,2722.505234641571,0.41100094487833416,1.3088686422312679,0.9720749190917116,0.28633355,0.6957913324177712
0.0475,1.74359375,1.0,2720.808672387388,0.41430476067104455,1.3083506178029676,0.9724676083205723,0.28628393750000003,0.696810894453215
0.048,1.7424,1.0,2719.0522462237855,0.4175900466490531,1.3078274982106934,0.9728488794242118,0.2862338,0.6978387479124539
0.0485,1.74119375,1.0,2717.2409615629463,0.4208569059444157,1.3072992383876187,0.9732191611480446,0.2861831375,0.6988749301224154
0.049,1.739975,1.0,2715.3767834988166,0.42410544111073345,1.306765820930347,0.9735788637018248,0.28613195,0.6999194231789869
0.0495,1.73874375,1.0,2713.464757775989,0.42733575432734683,1.3062272003417705,0.9739283760407706,0.2860802375,0.700972263299876
0.05,1.7375,1.0,2711.5099245002484,0.43054794777359656,1.3056833311247822,0.9742680689932804,0.286028,0.7020334855626811
0.0505,1.73624375,1.0,2709.5162249963546,0.4337421225065959,1.305134177751241,0.9745982967970933,0.2859752375,0.703103104490032
0.051000000000000004,1.734980709222461,1.0,2707.756829343473,0.43691838150892554,1.3045798259532213,0.9749194056270524,0.28592218978734335,0.7041808980303106
0.051500000000000004,1.7337176562121035,1.0,2706.532329624967,0.44007682506590445,1.3040205910179876,0.9752317404799479,0.28586914156090837,0.705266199735566
0.052000000000000005,1.732454603201746,1.0,2705.8056482692173,0.4432175520853594,1.3034568136522295,0.9755356323023869,0.28581609333447333,0.7063582979848089
0.0525,1.7311915501913886,1.0,2705.5392665610775,0.44634066147511703,1.3028888345626368,0.9758313972953452,0.2857630451080383,0.707456485641861
0.053,1.7299284971810311,1.0,2705.695797166967,0.4494462521430042,1.3023169944558992,0.9761193377084632,0.2857099968816033,0.7085600601503566
0.0535,1.728665444170674,1.0,2706.2382583144854,0.4525344229049209,1.3017416312578374,0.9763997424041548,0.28565694865516833,0.7096683289727657
0.054,1.7274023911603165,1.0,2707.136727817183,0.4556052708986384,1.3011630191293209,0.9766728836862282,0.2856039004287333,0.7107807267503582
0.0545,1.726139338149959,1.0,2708.356058158956,0.458658895453973,1.3005814804087816,0.9769390253190748,0.28555085220229826,0.7118965996022488
0.055,1.7248762851396016,1.0,2709.874054930095,0.4616953919025196,1.2999972195398548,0.977198412441933,0.2854978039758633,0.7130155238149112
0.0555,1.723613232129244,1.0,2711.6685504575053,0.46471485557587316,1.2994104409661749,0.9774512798960576,0.28544475574942824,0.7141370785728339
0.056,1.7223501791188869,1.0,2713.7173919294314,0.4677173818056286,1.298821349131377,0.9776978527479194,0.28539170752299325,0.7152608459926777
0.0565,1.7210871261085294,1.0,2715.99843044614,0.4707030659233808,1.2982301484790955,0.9779383467817475,0.2853386592965582,0.7163864111547726
0.057,1.719824073098172,1.0,2718.492996989376,0.4736720015777517,1.2976370117025282,0.9781729669917503,0.28528561107012324,0.7175134224004753
0.0575,1.7185610200878145,1.0,2721.1793073986555,0.47662428485706715,1.297042139777814,0.9784019118939897,0.2852325628436882,0.718641477028755
0.058,1.717297967077457,1.0,2724.039900201377,0.47956000992629716,1.2964456941505236,0.9786253696462899,0.2851795146172532,0.7197702500625454
0.0585,1.7160349140670998,1.0,2727.0625363005943,0.4824792682638053,1.2958477885971602,0.978843518038613,0.2851264663908182,0.7208995088717156
0.059000000000000004,1.7147718610567424,1.0,2730.2349637985235,0.4853821513479551,1.2952485368942277,0.9790565278532358,0.2850734181643832,0.7220290225185519
0.059500000000000004,1.713508808046385,1.0,2733.5449144570484,0.48826875065711006,1.2946480528182291,0.9792645631989573,0.28502036993794816,0.7231585617679402
0.06,1.7122457550360275,1.0,2736.9801004456635,0.4911391576696337,1.294046450145668,0.9794677818268864,0.2849673217115132,0.7242878990967192
0.0605,1.71098270202567,1.0,2740.5282113757075,0.4939934638638896,1.2934438426530481,0.9796663354289569,0.28491427348507814,0.7254168087022103
0.061,1.7097196490153128,1.0,2744.1835287778913,0.4968317540065394,1.2928402841305304,0.979860366200031,0.2848612252586431,0.7265451785406576
0.0615,1.7084565960049554,1.0,2747.9293723657534,0.4996541260714384,1.2922359275856323,0.980050017227164,0.2848081770322081,0.7276727124622611
0.062,1.707193542994598,1.0,2751.7551544921603,0.5024606719992872,1.2916308704971717,0.98023542286975,0.28475512880577314,0.7287992199396105
0.0625,1.7059304899842405,1.0,2755.6555171795058,0.5052514781815937,1.2910251627958629,0.9804167096132742,0.2847020805793381,0.7299246001901833
0.063,1.704667436973883,1.0,2759.6250897854497,0.5080266310098651,1.2904188544124204,0.9805939992846938,0.28464903235290306,0.7310487531944431
0.0635,1.7034043839635258,1.0,2763.658488310338,0.5107862168756091,1.289811995277559,0.9807674092599483,0.2845959841264681,0.7321715796978319
0.064,1.7021413309531683,1.0,2767.7503147594944,0.5135303221703333,1.2892046353219933,0.9809370526607685,0.2845429359000331,0.733292981212605
0.0645,1.7008782779428109,1.0,2771.8951565614875,0.5162590332855452,1.2885968244764376,0.9811030385414026,0.28448988767359806,0.7344128600195033
0.065,1.6996152249324534,1.0,2776.0875860414712,0.5189724366127525,1.2879886126716067,0.9812654720658485,0.284436839447163,0.7355311191692707
0.0655,1.698352171922096,1.0,2780.3221599494073,0.5216706185434626,1.2873800498382149,0.9814244546761395,0.28438379122072804,0.7366476624840088
0.066,1.6970891189117387,1.0,2784.593419043589,0.5243536654691832,1.286771185906977,0.9815800842521955,0.284330742994293,0.7377623945583738
0.0665,1.6958260659013813,1.0,2788.8958877304426,0.5270216637814217,1.2861620708086074,0.9817324552637208,0.284277694767858,0.7388752207606172
0.067,1.6945630128910238,1.0,2793.2299033429135,0.529674686074674,1.2855527020930484,0.9818816554691119,0.284224646541423,0.7399861426255063
0.0675,1.6932999598806664,1.0,2797.5862179178753,0.5323128343511297,1.284943163381554,0.9820277756773871,0.284171598314988,0.7410950052363299
0.068,1.692036906870309,1.0,2801.962255576825,0.5349361910144628,1.2843334781800548,0.982170899465753,0.28411855008855297,0.7422017639860723
0.0685,1.6907738538599517,1.0,2806.3561694138825,0.537544836449136,1.2837236633877944,0.9823111071459787,0.284065501862118,0.7433063865874028
0.069,1.6895108008495943,1.0,2810.7661067395006,0.5401388510396127,1.2831137359040161,0.9824484763366833,0.28401245363568295,0.7444088410155326
0.0695,1.6882477478392368,1.0,2815.1902090352787,0.5427183151703556,1.2825037126279635,0.9825830820727114,0.2839594054092479,0.7455090955083452
0.07,1.6869846948288794,1.0,2819.626611915,0.545283309225828,1.28189361045888,0.9827149969093544,0.28390635718281293,0.7466071185665089
0.07050000000000001,1.685721641818522,1.0,2824.073445091545,0.5478339135904928,1.2812834462960092,0.9828442910216897,0.28385330895637795,0.7477028789535718
0.07100000000000001,1.6844585888081647,1.0,2828.5288323508266,0.5503702086488131,1.2806732370385947,0.9829710322993018,0.2838002607299429,0.7487963456960358
0.07150000000000001,1.6831955357978072,1.0,2832.9908915316955,0.552892274785252,1.2800629995858797,0.9830952864366272,0.2837472125035079,0.749887488083417
0.07200000000000001,1.6819324827874498,1.0,2837.4577345122134,0.5554001923842724,1.2794527508371076,0.9832171170191543,0.2836941642770729,0.7509762756682827
0.0725,1.6806694297770925,1.0,2841.927467201882,0.5578940418303374,1.2788425076915224,0.9833365856056916,0.2836411160506379,0.7520626782662732
0.073,1.679406376766735,1.0,2846.3981895411152,0.56037390350791,1.2782322870483673,0.9834537518069151,0.28358806782420287,0.7531466659561064
