Time [s],Phi [rad],STIM [ ],Fsee [N],Gamma [ ],Lcerel [ ],q [ ],Lmtc [m],fisomrel [ ]
0.0,1.8,1.0,19.018691800123793,0.0010463085485139655,1.3792236142918968,0.005281097594554455,0.288653,0.5414204412097918
0.0005,1.79999375,1.0,19.631742254008152,0.006649648893795858,1.3791545647138521,0.01606589770369345,0.2886527375,0.5415874236500298
0.001,1.799975,1.0,23.743914244626573,0.012221558931273042,1.3787262991466558,0.041210999022853356,0.28865195,0.5426224181590491
0.0015,1.79994375,1.0,34.95729695502048,0.017762214956978415,1.3777247157902972,0.07813691846146185,0.2886506375,0.5450383899271021
0.002,1.7999,1.0,60.91193077249675,0.02327179228445445,1.3759078643906844,0.12355610695564447,0.2886488,0.5494045838304683
0.0025,1.79984375,1.0,108.56319331833227,0.028750465239362956,1.3733990498554758,0.17413544008298265,0.28864643749999996,0.5553990738744512
0.003,1.7997750000000001,1.0,175.3031954650963,0.03419840717113013,1.3706888540949127,0.2271078561234005,0.28864354999999997,0.5618296347251293
0.0035,1.79969375,1.0,253.5963094311429,0.03961579045641147,1.3681025128880215,0.2803621067540498,0.2886401375,0.5679226403237371
0.004,1.7996,1.0,338.22728947325174,0.04500278650504359,1.3657178104522825,0.33233773848675896,0.2886362,0.573502816065014
0.0045000000000000005,1.7994937500000001,1.0,426.50497844464326,0.05035956574585848,1.363522363712501,0.38196600193579483,0.2886317375,0.5786080710487125
0.005,1.799375,1.0,516.9190297961824,0.05568629774214,1.3614895552438504,0.4285951133780554,0.28862675,0.583307721459194
0.0055,1.79924375,1.0,608.3794873844163,0.0609831509154489,1.359597707657526,0.47189691060357636,0.2886212375,0.5876578081870294
0.006,1.7991000000000001,1.0,700.071185959441,0.06625029300471466,1.357829372012804,0.5117741282756613,0.2886152,0.5917032542248797
0.006500000000000001,1.79894375,1.0,791.2794611846548,0.07148789050831678,1.356171905629676,0.5482852466943032,0.2886086375,0.5954769567606035
0.007,1.798775,1.0,881.4476372620908,0.07669610932010378,1.3546145391758837,0.5815849888315682,0.28860155,0.5990067876437362
0.0075,1.79859375,1.0,970.0908801318216,0.08187511409135811,1.3531487796774158,0.6118829379700945,0.2885939375,0.6023148578200003
0.008,1.7984,1.0,1056.8277876533757,0.08702506864991578,1.3517671207075408,0.6394140265288848,0.2885858,0.6054205764959388
0.0085,1.79819375,1.0,1141.3748449569857,0.09214613628724848,1.3504626876920236,0.6644194283498142,0.2885771375,0.6083415323204182
0.009000000000000001,1.797975,1.0,1223.4840382962193,0.09723847859938482,1.3492297825655364,0.6871350252161212,0.28856795,0.6110923436518756
0.0095,1.79774375,1.0,1302.984527527165,0.10230225667626114,1.3480629937091089,0.7077839396352328,0.2885582375,0.6136867104918777
0.01,1.7975,1.0,1379.7748065370974,0.1073376314348253,1.3469571356862542,0.7265728878526339,0.288548,0.6161375828966524
0.0105,1.79724375,1.0,1453.7632403813036,0.11234476166625118,1.3459078574590868,0.7436910094591063,0.2885372375,0.6184558486864289
0.011,1.796975,1.0,1524.9010774860938,0.11732380555585933,1.3449110528709405,0.7593094153335846,0.28852595000000003,0.6206516760441942
0.0115,1.79669375,1.0,1593.1763999087557,0.12227492072918669,1.3439628371637464,0.7735818640516434,0.2885141375,0.6227345875327361
0.012,1.7964,1.0,1658.6143066723741,0.1271982647293458,1.3430594632556176,0.7866458612358652,0.28850180000000003,0.6247136628532128
0.0125,1.79609375,1.0,1721.2272717017133,0.13209399259808213,1.342197825755786,0.7986242183155129,0.2884889375,0.6265964542347344
0.013000000000000001,1.7957750000000001,1.0,1781.0513514756192,0.13696225890754804,1.3413749536817707,0.8096262296835894,0.28847555,0.6283901179807682
0.0135,1.79544375,1.0,1838.1454530372591,0.14180321776203292,1.3405879730938761,0.8197490548462706,0.2884616375,0.6301015069636643
0.014,1.7951000000000001,1.0,1892.586331545546,0.1466170232781947,1.3398341238043636,0.8290790489406684,0.2884472,0.6317371438077821
0.0145,1.79474375,1.0,1944.4383662280668,0.15140382749769465,1.3391110497113992,0.8376930811270482,0.2884322375,0.63330260192485
0.015,1.794375,1.0,1993.7642569245918,0.1561637811132901,1.3384166355179403,0.8456595670048982,0.28841675,0.6348028724640228
0.0155,1.79399375,1.0,2040.6447657724357,0.16089703481773832,1.3377487659269451,0.8530393778568941,0.2884007375,0.6362428925855409
0.016,1.7936,1.0,2085.160650283584,0.16560373820837243,1.3371054973142837,0.8598867851703215,0.2883842,0.6376271801036015
0.0165,1.7931937500000001,1.0,2127.4170305314574,0.1702840419146349,1.336484783246119,0.8662501594124857,0.2883671375,0.6389604293488911
0.017,1.792775,1.0,2167.486814324501,0.1749380930809014,1.3358850434605467,0.8721728314641563,0.28834955,0.6402462933019983
0.0175,1.7923437500000001,1.0,2205.444102752136,0.17956603816057307,1.3353047934242626,0.877693578898379,0.2883314375,0.6414881872025275
0.018000000000000002,1.7919,1.0,2241.372444682449,0.18416802360705087,1.3347425486039621,0.8828471341287546,0.2883128,0.6426894966649364
0.0185,1.79144375,1.0,2275.3571778424293,0.1887441950483834,1.3341968927216372,0.8876646731441115,0.2882936375,0.6438534339770489
0.019,1.790975,1.0,2307.4889072468,0.1932946985649303,1.333666433527848,0.892174215933698,0.28827395,0.6449831350025705
0.0195,1.79049375,1.0,2337.8465412215332,0.19781967833857356,1.3331499619918625,0.8964010240310352,0.2882537375,0.6460813227832288
0.02,1.79,1.0,2366.496840638116,0.20231927628373786,1.3326464450620052,0.9003679088743136,0.288233,0.6471503271288594
0.0205,1.78949375,1.0,2393.511525182945,0.20679363431484785,1.3321548496866011,0.9040954663156625,0.2882117375,0.6481924611915543
0.021,1.788975,1.0,2418.9668591733875,0.21124289434632823,1.3316741428139751,0.9076023220132834,0.28818995000000003,0.6492100222851238
0.021500000000000002,1.78844375,1.0,2442.932164292457,0.21566719642536392,1.3312033980095053,0.9109053683022763,0.2881676375,0.6502050674328994
0.022,1.7879,1.0,2465.4901901125613,0.22006668335926982,1.3307415946801133,0.9140199123853162,0.2881448,0.6511798391213509
0.0225,1.78734375,1.0,2486.703342808193,0.22444149393241516,1.3302879387297497,0.9169599055988854,0.28812143749999997,0.6521360890613939
0.023,1.786775,1.0,2506.626519745531,0.22879176507821858,1.3298417332831645,0.9197380607274369,0.28809755,0.6530753539054777
0.0235,1.78619375,1.0,2525.3169707809093,0.2331176337300987,1.3294022814651079,0.9223659628224413,0.28807313749999996,0.6539991612422891
0.024,1.7856,1.0,2542.8341013068016,0.23741923682147414,1.3289688864003297,0.9248541848121904,0.2880482,0.6549090299123946
0.0245,1.78499375,1.0,2559.239286063935,0.2416967112857636,1.3285408512135803,0.9272123898658724,0.2880227375,0.6558064702929084
0.025,1.784375,1.0,2574.585742264504,0.2459501905989775,1.3281175721661178,0.929449436398287,0.28799675,0.6566927896550143
0.025500000000000002,1.78374375,1.0,2588.9366096174435,0.2501798142594179,1.3276983670830955,0.9315734328837839,0.2879702375,0.6575694522036759
0.026000000000000002,1.7831000000000001,1.0,2602.3352881578135,0.25438571445609787,1.3272827512330498,0.9335918493774734,0.2879432,0.6584375023766761
0.0265,1.78244375,1.0,2614.8245107486487,0.25856802267957946,1.3268702565229944,0.9355115522264618,0.2879156375,0.6592979445171934
0.027,1.781775,1.0,2626.448022153787,0.26272687042042486,1.3264604148599435,0.9373388588132894,0.28788755,0.6601517778363316
0.0275,1.7810937500000001,1.0,2637.2504904874313,0.2668623891691962,1.326052758150911,0.9390795887507125,0.2878589375,0.6609999964993098
0.028,1.7804,1.0,2647.277423521666,0.27097471041645543,1.325646818302911,0.9407391096803912,0.2878298,0.6618435896976749
0.0285,1.77969375,1.0,2656.5657889222216,0.27506396273793465,1.3252422129174812,0.9423223894369924,0.2878001375,0.662683363955803
0.029,1.778975,1.0,2665.1562426508976,0.27913027751224606,1.3248385314331717,0.9438340178267829,0.28776995,0.6635201801541466
0.029500000000000002,1.7782437500000001,1.0,2673.0986987807014,0.2831737880288364,1.3244352836470834,0.9452782327153507,0.2877392375,0.6643550597093002
0.03,1.7775,1.0,2680.4207146631975,0.2871946195714178,1.32403218971382,0.9466589861722221,0.287708,0.6651885842769991
0.0305,1.77674375,1.0,2687.1502454950623,0.2911928974237022,1.3236289697879853,0.9479799438376667,0.2876762375,0.6660213326338243
0.031,1.775975,1.0,2693.315609205653,0.29516874686940153,1.3232253440241826,0.9492445092792359,0.28764395,0.6668538806774517
0.0315,1.7751937500000001,1.0,2698.9454530809344,0.29912229319222794,1.3228210325770153,0.950455845991706,0.2876111375,0.6676868014219057
0.032,1.7744,1.0,2704.0687221236317,0.30305366167589326,1.3224157556010876,0.9516168972938819,0.2875778,0.6685206649878181
0.0325,1.77359375,1.0,2708.7146291500767,0.3069629776041095,1.3220092332510025,0.9527304043459595,0.2875439375,0.669356038587696
0.033,1.772775,1.0,2712.912507250974,0.3108503659951597,1.3216011867697226,0.9537989225369841,0.28750955,0.670193484273935
0.0335,1.7719437500000002,1.0,2716.68881889588,0.3147159455024876,1.3211913654941008,0.9548248377279253,0.2874746375,0.6710335036098054
0.034,1.7711000000000001,1.0,2720.070216527267,0.318559847418664,1.3207795186755606,0.9558103815532634,0.2874392,0.6718765956577668
0.0345,1.7702437500000001,1.0,2723.07540516601,0.3223821906300429,1.3203654693439162,0.9567576448291099,0.2874032375,0.6727231060333301
0.035,1.7693750000000001,1.0,2725.723214369949,0.3261830940229784,1.3199490405289822,0.957668583627255,0.28736675,0.6735733783947184
0.035500000000000004,1.76849375,1.0,2728.032585073628,0.32996267648382466,1.3195300552605724,0.958545029516581,0.2873297375,0.6744277544170139
0.036000000000000004,1.7676,1.0,2730.022557121533,0.3337210568989356,1.3191083365685012,0.9593886989135895,0.2872922,0.675286573764299
0.0365,1.76669375,1.0,2731.7122574965206,0.33745835415466535,1.318683707482583,0.9602012016287302,0.2872541375,0.676150174059807
0.037,1.765775,1.0,2733.12088924181,0.34117468713736804,1.318255991032632,0.9609840486859509,0.28721555,0.6770188908540731
0.0375,1.76484375,1.0,2734.2677210782313,0.3448701747333977,1.3178250102484623,0.9617386594846796,0.2871764375,0.6778930575910869
0.038,1.7639,1.0,2735.1506474411367,0.3485449113995803,1.317390782751279,0.9624663819576247,0.28713679999999997,0.678772611685365
0.0385,1.76294375,1.0,2735.8068207643105,0.3521990423390364,1.3169529700665117,0.9631684609382398,0.28709663750000003,0.6796582103508194
0.039,1.761975,1.0,2736.255836938996,0.3558326906232399,1.3165113935535167,0.9638460787226036,0.28705595,0.6805501841543715
0.0395,1.7609937500000001,1.0,2736.506808694374,0.3594459666378984,1.3160659700239876,0.9645003554003767,0.2870147375,0.6814486689821293
0.04,1.76,1.0,2736.5688726254753,0.36303898076871927,1.3156166162896188,0.9651323469570254,0.286973,0.6823537994958276
0.0405,1.7589937500000001,1.0,2736.451185953446,0.36661184340141,1.3151632491621035,0.9657430496173081,0.2869307375,0.6832657091121999
0.041,1.757975,1.0,2736.1629234389843,0.370164664921678,1.3147057854531357,0.9663334038505405,0.28688795,0.6841845299819036
0.0415,1.75694375,1.0,2735.713274449605,0.3736975557152308,1.3142441419744093,0.9669042980672414,0.2868446375,0.685110392968008
0.042,1.7559,1.0,2735.111440179974,0.37721062616777573,1.313778235537618,0.9674565720338766,0.28680079999999997,0.6860434276240406
0.0425,1.75484375,1.0,2734.366631026206,0.38070398666502037,1.3133079829544556,0.9679910200298775,0.2867564375,0.6869837621715897
0.043000000000000003,1.753775,1.0,2733.4880641126033,0.3841777475926721,1.312833301036616,0.9685083937688134,0.28671155,0.6879315234774681
0.043500000000000004,1.75269375,1.0,2732.484960973181,0.3876320193364383,1.3123541065957929,0.9690094051035425,0.28666613750000003,0.6888868370304339
0.044,1.7516,1.0,2731.3665453851777,0.39106691228202656,1.31187031644368,0.9694947285333171,0.2866202,0.689849826917471
0.0445,1.75049375,1.0,2730.1420413574137,0.3944825368151443,1.3113818473919714,0.969965003529176,0.2865737375,0.6908206157996271
0.045,1.7493750000000001,1.0,2728.820671270829,0.3978790033214989,1.3108886162523607,0.970420836692449,0.28652675,0.6917993248874119
0.0455,1.74824375,1.0,2727.4116541734156,0.40125642218679786,1.3103905398365419,0.9708628037598749,0.2864792375,0.692786073915753
0.046,1.7471,1.0,2725.9154761568275,0.40461487462818246,1.3098876143431573,0.9712914533611655,0.2864312,0.6937808242241921
0.0465,1.7459437500000001,1.0,2724.3474282966126,0.4079545015738254,1.3093797013060624,0.971707305038526,0.28638263750000004,0.6947838023589656
0.047,1.744775,1.0,2722.712358921395,0.4112754079778641,1.3088667571687078,0.9721108546745367,0.28633355,0.695795045650786
0.0475,1.74359375,1.0,2721.0140036490793,0.41457769482988066,1.3083487484760543,0.9725025741287898,0.28628393750000003,0.6968145705141933
0.048,1.7424,1.0,2719.2560958413255,0.41786146311945727,1.307825641773063,0.9728829124395417,0.2862338,0.6978423924330419
0.0485,1.74119375,1.0,2717.4423661860797,0.421126813836176,1.3072974036046943,0.9732522971355053,0.2861831375,0.6988785259496608
0.049,1.739975,1.0,2715.576542303478,0.424373847969619,1.306764000515909,0.973611135460581,0.28613195,0.6999229846539395
0.0495,1.73874375,1.0,2713.662348377451,0.42760266650936846,1.3062253990516681,0.9739598155180438,0.2860802375,0.7009757811723425
0.05,1.7375,1.0,2711.7035048121747,0.43081337044500645,1.3056815657569323,0.9742987073401714,0.286028,0.7020369271568567
0.0505,1.73624375,1.0,2709.703727912615,0.4340060607661151,1.3051324671766624,0.9746281638887957,0.2859752375,0.7031064332738617
0.051000000000000004,1.734975,1.0,2707.666729590711,0.4371808384622766,1.3045780698558194,0.9749485219918183,0.28592195,0.7041843091929325
0.051500000000000004,1.73369375,1.0,2705.5962170959433,0.4403378045230731,1.3040183403393635,0.9752601032203174,0.2858681375,0.7052705635755707
0.052000000000000005,1.7324,1.0,2703.4958927704906,0.44347705993808667,1.303453245172256,0.9755632147105096,0.2858138,0.7063652040638606
0.0525,1.73109375,1.0,2701.3694538299196,0.44659870569689947,1.3028827508994574,0.9758581499344774,0.28575893750000003,0.7074682372690602
0.053,1.729775,1.0,2699.2205921679724,0.4497028427890936,1.3023068240659286,0.9761451894232808,0.28570355000000003,0.7085796687601139
0.0535,1.72844375,1.0,2697.052821481686,0.45278956855619173,1.301725432795867,0.9764246011737202,0.2856476375,0.7096995000132231
0.054,1.7271,1.0,2694.8683485407428,0.45585895314801983,1.3011385571200238,0.9766966396021215,0.2855912,0.7108277085958871
0.0545,1.7257437500000001,1.0,2692.6714820158286,0.4589111390383308,1.3005461578027777,0.9769615541830476,0.2855342375,0.7119643081313387
0.055,1.724375,1.0,2690.463561748197,0.46194621810815173,1.2999482227261907,0.9772195804138614,0.28547675,0.7131092591945137
0.0555,1.72299375,1.0,2688.245925492955,0.4649642822385097,1.2993447397723243,0.977470943870601,0.2854187375,0.7142625215900492
0.056,1.7216,1.0,2686.019908891295,0.46796542331043195,1.2987356968232406,0.9777158607055101,0.2853602,0.7154240543480002
0.0565,1.72019375,1.0,2683.7868454460527,0.4709497332049455,1.298121081761001,0.9779545381156685,0.28530113749999997,0.716593815719549
0.057,1.718775,1.0,2681.548066500453,0.47391730380307745,1.297500882467667,0.9781871747846238,0.28524155,0.7177717631727021
0.0575,1.71734375,1.0,2679.3049012197193,0.47686822698585496,1.296875086825301,0.9784139612987875,0.2851814375,0.7189578533879784
0.058,1.7159,1.0,2677.0586765769854,0.47980259463430514,1.2962436827159642,0.9786350805402256,0.2851208,0.7201520422540916
0.0585,1.71444375,1.0,2674.810717341349,0.4827204986294551,1.2956066580217187,0.9788507080573582,0.2850596375,0.7213542848636181
0.059000000000000004,1.7129750000000001,1.0,2672.5623460698075,0.485622030852332,1.2949640006246261,0.9790610124149789,0.28499795,0.7225645355086594
0.059500000000000004,1.71149375,1.0,2670.314883102248,0.4885072831839629,1.294315698406748,0.9792661555248988,0.2849357375,0.7237827476764926
0.06,1.71,1.0,2668.0696465596625,0.49137634750537496,1.2936617392501464,0.9794662929584271,0.284873,0.7250088740452139
0.0605,1.7084937500000001,1.0,2665.827952345882,0.49422931569759526,1.293002111036883,0.9796615742418252,0.2848097375,0.726242866479369
0.061,1.7069750000000001,1.0,2663.5911141521374,0.49706627964165095,1.2923368016490193,0.9798521431357782,0.28474595,0.7274846760255802
0.0615,1.7054437500000001,1.0,2661.3604434650797,0.4998873312185691,1.2916657989686173,0.9800381378998725,0.2846816375,0.7287342529081573
0.062,1.7039,1.0,2659.13724957863,0.5026925623093769,1.2909890908777386,0.9802196915429807,0.2846168,0.729991546524704
0.0625,1.70234375,1.0,2656.9186805071436,0.5054820225056419,1.2903067035759739,0.9803969308449236,0.2845514375,0.7312564344988892
0.063,1.7007750000000001,1.0,2654.7073255269606,0.5082558320951526,1.2896186131558793,0.9805699806130156,0.28448555,0.7325288868420444
0.0635,1.69919375,1.0,2652.5061596231303,0.5110141059997391,1.2889247921138698,0.9807389603970263,0.28441913750000003,0.733808879151649
0.064,1.6976,1.0,2650.3152763292005,0.5137569263716594,1.2882252394807516,0.9809039842674816,0.2843522,0.7350963371373194
0.0645,1.69599375,1.0,2648.1347690546218,0.5164843753631713,1.2875199542873312,0.9810651621354801,0.2842847375,0.7363911858629176
0.065,1.694375,1.0,2645.964731086225,0.5191965351265326,1.286808935564415,0.9812225999329608,0.28421675,0.7376933497461966
0.0655,1.69274375,1.0,2643.8052555902773,0.5218934878140011,1.2860921823428093,0.9813763997838882,0.2841482375,0.7390027525584463
0.066,1.6911,1.0,2641.6564356143203,0.5245753155778348,1.2853696936533203,0.9815266601668795,0.2840792,0.7403193174241394
0.0665,1.6894437500000001,1.0,2639.518364089298,0.5272421005702914,1.2846414685267544,0.9816734760697567,0.2840096375,0.7416429668205762
0.067,1.687775,1.0,2637.391133831021,0.5298939249436287,1.2839075059939182,0.9818169391364792,0.28393955,0.7429736225775296
0.0675,1.68609375,1.0,2635.274837542754,0.5325308708501046,1.283167805085618,0.9819571378068838,0.2838689375,0.7443112058768926
0.068,1.6844000000000001,1.0,2633.169567816853,0.5351530204419769,1.28242236483266,0.9820941574496305,0.2837978,0.7456556372523211
0.0685,1.68269375,1.0,2631.075417136711,0.5377604558715035,1.2816711842658506,0.9822280804887292,0.2837261375,0.7470068365888816
0.069,1.680975,1.0,2628.992477879119,0.5403532592909421,1.2809142624159962,0.9823589865240019,0.28365395,0.748364723122694
0.0695,1.67924375,1.0,2626.9208423159325,0.5429315128525506,1.2801515983139031,0.9824869524458031,0.28358123749999997,0.7497292154405787
0.07,1.6775,1.0,2624.8606026165335,0.5454952987085868,1.2793831909903777,0.9826120525443198,0.283508,0.7511002314797008
0.07050000000000001,1.67574375,1.0,2622.8118508496377,0.5480446990113086,1.2786090394762264,0.9827343586137323,0.2834342375,0.7524776885272147
0.07100000000000001,1.673975,1.0,2620.7746789853813,0.5505797959129738,1.2778291428022555,0.9828539400515143,0.28335995,0.7538615032199105
0.07150000000000001,1.67219375,1.0,2618.7491788977786,0.5531006715658401,1.2770434999992712,0.9829708639531312,0.2832851375,0.7552515915438578
0.07200000000000001,1.6704,1.0,2616.7354423666275,0.5556074081221656,1.2762521100980804,0.983085195202376,0.2832098,0.75664786883405
0.0725,1.66859375,1.0,2614.7335610797486,0.5581000877342077,1.275454972129489,0.983196996557571,0.2831339375,0.7580502497740511
0.073,1.6667750000000001,1.0,2612.7438826197267,0.5605787892728264,1.2746520827460797,0.9833063284360366,0.28305755,0.759458652561354
0.0735,1.66494375,1.0,2610.771083369268,0.5630435404759294,1.2738433983641062,0.983413244560281,0.2829806375,0.760873064963002
0.074,1.6631,1.0,2608.80972714625,0.5654944897824505,1.2730289693565768,0.983517807986312,0.2829032,0.7622933096048643
0.0745,1.6612437500000001,1.0,2606.8596641677464,0.5679317099394994,1.2722087970044302,0.9836200733012972,0.2828252375,0.7637192947493652
0.075,1.659375,1.0,2604.9207449215173,0.5703552736941851,1.271382882588604,0.9837200933636864,0.28274675,0.765150928054528
0.0755,1.65749375,1.0,2602.992820163178,0.5727652537936173,1.2705512273900366,0.9838179193675257,0.2826677375,0.7665881165744411
