Time [s],Phi [rad],STIM [ ],Fsee [N],Gamma [ ],Lcerel [ ],q [ ],Lmtc [m],fisomrel [ ]
0.0,1.8,1.0,19.681280012066626,0.0013368633861184076,1.379152081253593,0.005457841989448771,0.288653,0.5415934288299391
0.0005,1.79999375,1.0,20.365763871749362,0.006938573948501,1.3790766152639071,0.017030175867316123,0.2886527375,0.5417758920920273
0.001,1.799975,1.0,24.6992956500631,0.012508863344653464,1.3786341091452068,0.042852731302161405,0.28865195,0.5428450618361469
0.0015,1.79994375,1.0,36.455150904738574,0.01804790782000464,1.3776056714448024,0.08029913888294957,0.2886506375,0.5453251176426019
0.002,1.7999,1.0,63.426903755882584,0.023555882636403454,1.3757563846624803,0.1260625910297114,0.2886488,0.5497676638564482
0.0025,1.79984375,1.0,112.19871233228093,0.02903296206910848,1.3732347181157458,0.17682788150232148,0.28864643749999996,0.5557903226819507
0.003,1.7997750000000001,1.0,179.6739148474459,0.034479319416930415,1.3705330555649957,0.22986279937667936,0.28864354999999997,0.5621978786150121
0.0035,1.79969375,1.0,258.3423583769604,0.03989512700709706,1.3679616390692217,0.28308612607949385,0.2886401375,0.5682532913695528
0.004,1.7996,1.0,343.16713723450897,0.0452805561985744,1.3655907180743918,0.33496388416989015,0.2886362,0.5737991927865134
0.0045000000000000005,1.7994937500000001,1.0,431.5539659910504,0.0506357773892305,1.3634066059846546,0.3844508782377696,0.2886317375,0.5788763990010014
0.005,1.799375,1.0,522.0079785553626,0.055960960017073146,1.361383522686,0.43091467047301524,0.28862675,0.5835521349842389
0.0055,1.79924375,1.0,613.4861800156386,0.061256272604688876,1.359499593582947,0.4740407972169452,0.2886212375,0.5878827876712243
0.006,1.7991000000000001,1.0,705.1435453643458,0.06652188265080994,1.357738497571384,0.5137422292333137,0.2886152,0.5919106101893141
0.006500000000000001,1.79894375,1.0,796.2989506937015,0.07175795678510856,1.3560873008542316,0.5500834066038143,0.2886086375,0.5956691140636097
0.007,1.798775,1.0,886.3830918890841,0.07696466072959131,1.3545357058910195,0.5832229908121683,0.28860155,0.5991850550011371
0.0075,1.79859375,1.0,974.9151327967179,0.08214215900639663,1.3530753160648106,0.6133724969806085,0.2885939375,0.6024802971483869
0.008,1.7984,1.0,1061.54367105822,0.08729061588001692,1.3516983086338428,0.6407673579550982,0.2885858,0.605574935280913
0.0085,1.79819375,1.0,1145.9580753579257,0.09241019392326505,1.3503983286466699,0.6656489894950561,0.2885771375,0.6084853676072077
0.009000000000000001,1.797975,1.0,1227.9242396634065,0.0975010549808778,1.3491695547105498,0.6882526658144402,0.28856795,0.6112264734159324
0.0095,1.79774375,1.0,1307.290798471294,0.1025633604178144,1.3480063879373294,0.7088006231938132,0.2885582375,0.6138123531722353
0.01,1.7975,1.0,1383.9382798764395,0.10759727058383539,1.3469039479128786,0.7274988386451828,0.288548,0.6162552644211059
0.0105,1.79724375,1.0,1457.774989412293,0.11260294422100958,1.345857925916098,0.7445355273617709,0.2885372375,0.6185659919675217
0.011,1.796975,1.0,1528.7587722619733,0.11758053955291489,1.3448641693741437,0.760080851405467,0.28852595000000003,0.6207547980927359
0.0115,1.79669375,1.0,1596.900155149396,0.12253021518455097,1.3439185596705872,0.7742875929020571,0.2885141375,0.6228317101852959
0.012,1.7964,1.0,1662.1996023488662,0.12745212738597073,1.3430176797237738,0.7872926044650834,0.28850180000000003,0.6248050746075208
0.0125,1.79609375,1.0,1724.6668661757187,0.13234643110516234,1.3421584744899708,0.7992179796062736,0.2884889375,0.6266823288733928
0.013000000000000001,1.7957750000000001,1.0,1784.3467864282009,0.1372132812901139,1.3413378889254457,0.8101723125940022,0.28847555,0.6284708086221942
0.0135,1.79544375,1.0,1841.2960364045225,0.14205283203427654,1.340553091008474,0.8202521869866412,0.2884616375,0.630177271060504
0.014,1.7951000000000001,1.0,1895.6020585546187,0.14686523765538237,1.3398012175347658,0.8295433923403253,0.2884472,0.6318084584243966
0.0145,1.79474375,1.0,1947.3212883785172,0.15165064956802662,1.3390800139563916,0.8381223694794007,0.2884322375,0.6333697198193025
0.015,1.794375,1.0,1996.5179126417397,0.15640921860088225,1.3383873596190548,0.8460571191811587,0.28841675,0.6348660550065195
0.0155,1.79399375,1.0,2043.2741217957187,0.16114109558262224,1.3377211338684585,0.8534081468663716,0.2884007375,0.6363024098807486
0.016,1.7936,1.0,2087.6723739844833,0.1658464301597129,1.3370793841948052,0.860229400218928,0.2883842,0.6376833187208256
0.0165,1.7931937500000001,1.0,2129.8165368781883,0.1705253726354809,1.3364600853160151,0.8665689730452588,0.2883671375,0.6390134278990428
0.017,1.792775,1.0,2169.7755829827015,0.17517806992101045,1.33586170369763,0.8724699594933789,0.28834955,0.6402962882312675
0.0175,1.7923437500000001,1.0,2207.625791505648,0.1798046687035078,1.335282737524513,0.8779709104976697,0.2883314375,0.6415353505040449
0.018000000000000002,1.7919,1.0,2243.4529081540077,0.18440531567017926,1.3347216849815282,0.8831063584496663,0.2883128,0.6427340357242557
0.0185,1.79144375,1.0,2277.3354627337385,0.1889801559626897,1.334177202207567,0.8879073252390736,0.2882936375,0.6438954002701621
0.019,1.790975,1.0,2309.3757465957888,0.1935293365783726,1.3336477841761982,0.8924016488533932,0.28827395,0.6450228192420697
0.0195,1.79049375,1.0,2339.641655639772,0.1980530001993325,1.333132334595544,0.8966144825809429,0.2882537375,0.6461187743843195
0.02,1.79,1.0,2368.202305108092,0.20255128906648526,1.3326297994845846,0.9005685115277133,0.288233,0.6471856393330517
0.0205,1.78949375,1.0,2395.131803666747,0.2070243454207467,1.3321391248623007,0.9042842193439031,0.2882117375,0.6482257708408963
0.021,1.788975,1.0,2420.5074574625355,0.21147231124330926,1.331659270015342,0.9077801346062393,0.28818995000000003,0.6492414815462069
0.021500000000000002,1.78844375,1.0,2444.3993635960583,0.2158953268957265,1.3311893033174096,0.9110730638238482,0.2881676375,0.6502348385463294
0.022,1.7879,1.0,2466.888048655891,0.22029353498264465,1.330728227573287,0.9141782431373354,0.2881448,0.6512080340759951
0.0225,1.78734375,1.0,2488.029431460451,0.224667072911817,1.3302753120239965,0.9171095674028443,0.28812143749999997,0.6521626858018232
0.023,1.786775,1.0,2507.8820516509604,0.22901607809099678,1.3298298259105603,0.9198796810351695,0.28809755,0.6531004015937802
0.0235,1.78619375,1.0,2526.5068519364286,0.2333406879279372,1.3293910384740004,0.9225001078328943,0.28807313749999996,0.6540227798884553
0.024,1.7856,1.0,2543.9669721788823,0.2376410398303915,1.328958218955339,0.9249813657713666,0.2880482,0.6549314100182756
0.0245,1.78499375,1.0,2560.3158482176977,0.24191726837665775,1.328530746468207,0.927333086559689,0.2880227375,0.6558276422992433
0.025,1.784375,1.0,2575.6200558835294,0.24616951298754833,1.3281078929022467,0.9295640700568185,0.28799675,0.6567130440537239
0.025500000000000002,1.78374375,1.0,2589.928303019058,0.25039790771672443,1.3276891123795835,0.9316824098391917,0.2879702375,0.6575887934562521
0.026000000000000002,1.7831000000000001,1.0,2603.2832710507796,0.25460258458208423,1.3272739272085166,0.9336955439020775,0.2879432,0.6584559201834012
0.0265,1.78244375,1.0,2615.728756699628,0.2587836756015256,1.326861859697345,0.9356103072503411,0.2879156375,0.6593154485816111
0.027,1.781775,1.0,2627.309576643198,0.26294131279294664,1.3264524321543676,0.9374329888580927,0.28788755,0.6601683977694452
0.0275,1.7810937500000001,1.0,2638.0714772367955,0.2670756281742454,1.3260451668878837,0.9391693825546452,0.2878589375,0.6610157817252937
0.028,1.7804,1.0,2648.059711636463,0.27118675317043234,1.3256395985505482,0.9408248341193223,0.2878298,0.6618585837239725
0.0285,1.77969375,1.0,2657.311696256576,0.2752748157429944,1.325235340943827,0.9424042903268651,0.2878001375,0.6626976179883695
0.029,1.778975,1.0,2665.8794921095327,0.2793399517386886,1.3248318789360194,0.9439123096677898,0.28776995,0.6635339618204568
0.029500000000000002,1.7782437500000001,1.0,2673.7926580375743,0.28338228727275255,1.3244289100343736,0.945353137069794,0.2877392375,0.6643682472382282
0.03,1.7775,1.0,2681.081207038438,0.2874019484604237,1.3240261317461373,0.9467307058068243,0.287708,0.6652011031429684
0.0305,1.77674375,1.0,2687.775566112702,0.2913990614169397,1.323623241578558,0.9480486643272423,0.2876762375,0.6660331553258492
0.031,1.775975,1.0,2693.90653813872,0.29537375225753815,1.323219937038884,0.9493104004561961,0.28764395,0.666865026468686
0.0315,1.7751937500000001,1.0,2699.5052657772007,0.29932614709745653,1.3228159156343626,0.9505190632576459,0.2876111375,0.6676973361388651
0.032,1.7744,1.0,2704.6031974036778,0.3032563720519324,1.322410874872242,0.9516775828076384,0.2875778,0.6685307007784295
0.0325,1.77359375,1.0,2709.218316159348,0.3071645469426106,1.3220046376076937,0.9527887011657004,0.2875439375,0.669365476272761
0.033,1.772775,1.0,2713.3893379095603,0.3110508027179705,1.32159683952015,0.9538549558869308,0.28750955,0.6702024005441674
0.0335,1.7719437500000002,1.0,2717.1469131892563,0.3149152648865448,1.321187191959626,0.954878722031546,0.2874746375,0.6710420526820482
0.034,1.7711000000000001,1.0,2720.509708951883,0.318758052888139,1.3207755170986126,0.9558622286379623,0.2874392,0.6718847819837936
0.0345,1.7702437500000001,1.0,2723.4965304348834,0.3225792861625585,1.3203616371096,0.9568075593609375,0.2874032375,0.6727309358050284
0.035,1.7693750000000001,1.0,2726.1263072456154,0.3263790841496087,1.3199453741650788,0.9577166636496165,0.28736675,0.6735808595356113
0.035500000000000004,1.76849375,1.0,2728.4180801491384,0.330157566289095,1.3195265504375395,0.958591366942511,0.2873297375,0.6744348965736178
0.036000000000000004,1.7676,1.0,2730.3909885567646,0.33391485202082277,1.3191049880994725,0.9594333799760738,0.2872922,0.6752933882973071
0.0365,1.76669375,1.0,2732.064258715957,0.3376510607845975,1.3186805093233684,0.9602443072930783,0.2872541375,0.6761566740350717
0.037,1.765775,1.0,2733.457192600929,0.3413663120202246,1.3182529362817177,0.9610256550278027,0.28721555,0.6770250910333704
0.0375,1.76484375,1.0,2734.588189124667,0.3450607236692477,1.3178220999410293,0.9617788385756514,0.2871764375,0.6778989565978137
0.038,1.7639,1.0,2735.4717121143262,0.34873440871838524,1.3173878674964015,0.9625051910118437,0.28713679999999997,0.6787785126469602
0.0385,1.76294375,1.0,2736.1283118832894,0.35238749364651567,1.316950051289708,0.9632059640662262,0.28709663750000003,0.6796641102916181
0.039,1.761975,1.0,2736.569051352884,0.3560200910683842,1.3165085501510252,0.9638823414427445,0.28705595,0.6805559237286224
0.0395,1.7609937500000001,1.0,2736.805023495151,0.3596323135987365,1.3160632629104276,0.9645354383614366,0.2870147375,0.6814541257602484
0.04,1.76,1.0,2736.8473470485833,0.36322427385231765,1.3156140883979912,0.965166306247881,0.286973,0.6823588877701052
0.0405,1.7589937500000001,1.0,2736.7071624620157,0.36679608444387324,1.315160925443791,0.9657759370536907,0.2869307375,0.6832703796983839
0.041,1.757975,1.0,2736.395628064759,0.3703478579881486,1.314703672877903,0.9663652672406571,0.28688795,0.6841887700164473
0.0415,1.75694375,1.0,2735.9239164638934,0.3738797070998892,1.314242229530402,0.9669351814579656,0.2868446375,0.6851142257007723
0.042,1.7559,1.0,2735.3032111686302,0.3773917443938403,1.313776494231364,0.9674865159390656,0.28680079999999997,0.6860469122062336
0.0425,1.75484375,1.0,2734.5447034415406,0.38088408248474737,1.3133063658108637,0.9680200616422233,0.2867564375,0.6869869934387414
0.043000000000000003,1.753775,1.0,2733.651413197287,0.38435681582804926,1.3128318173608458,0.9685365703060544,0.28671155,0.6879344835673165
0.043500000000000004,1.75269375,1.0,2732.6404573808727,0.3878100744391821,1.312352693984513,0.969036749171074,0.28666613750000003,0.6888896510223763
0.044,1.7516,1.0,2731.5224500431436,0.3912439745090125,1.3118688998337595,0.9695212708565393,0.2866202,0.6898526445040831
0.0445,1.75049375,1.0,2730.302960779152,0.39465862067486274,1.311380384888786,0.9699907748934012,0.2865737375,0.6908235201100494
0.045,1.7493750000000001,1.0,2728.987560161858,0.39805411757405484,1.3108870991297927,0.9704458679776419,0.28652675,0.6918023328911429
0.0455,1.74824375,1.0,2727.581818744731,0.401430569843911,1.310388992536981,0.9708871259714861,0.2864792375,0.6927891368363457
0.046,1.7471,1.0,2726.0913061199212,0.4047880821217534,1.309886015090551,0.9713150957639938,0.2864312,0.6937839848574581
0.0465,1.7459437500000001,1.0,2724.521590031902,0.40812675904490403,1.309378116770703,0.9717302970021636,0.28638263750000004,0.6947869287736392
0.047,1.744775,1.0,2722.878235546029,0.4114467052506851,1.3088652475576383,0.9721332237027126,0.28633355,0.695798019295787
0.0475,1.74359375,1.0,2721.1668042737524,0.41474802537641875,1.3083473574315574,0.9725243457538026,0.28628393750000003,0.6968173060107634
0.048,1.7424,1.0,2719.392853651925,0.4180308240594271,1.3078243963726606,0.9729041103151932,0.2862338,0.6978448373654565
0.0485,1.74119375,1.0,2717.561936278631,0.42129520593703224,1.3072963143611487,0.9732729431245719,0.2861831375,0.6988806606506827
0.049,1.739975,1.0,2715.679599303898,0.42454127564655636,1.3067630613772223,0.9736312497171543,0.28613195,0.6999248219849317
0.0495,1.73874375,1.0,2713.751383876079,0.4277691378253216,1.306224587401082,0.9739794165650575,0.2860802375,0.7009773662979498
0.05,1.7375,1.0,2711.7828246439676,0.43097889711065007,1.3056808424129287,0.9743178121424031,0.286028,0.7020383373141654
0.0505,1.73624375,1.0,2709.774653073759,0.4341706328259515,1.3051318201473396,0.9746467879414019,0.2859752375,0.7031076923902155
0.051000000000000004,1.734975,1.0,2707.7345829116985,0.43734447561600553,1.304577450617018,0.9749666810174462,0.28592195,0.7041855120396618
0.051500000000000004,1.73369375,1.0,2705.6656863084586,0.4405005271891631,1.3040177061112712,0.975277812635325,0.2858681375,0.7052717932743646
0.052000000000000005,1.7324,1.0,2703.570091669479,0.4436388835279455,1.3034525675010982,0.97558048957798,0.2858138,0.706366515551631
0.0525,1.73109375,1.0,2701.4499245953702,0.44675964061487394,1.302882015657498,0.975875005002468,0.28575893750000003,0.7074696574976119
0.053,1.729775,1.0,2699.307307779102,0.44986289443246974,1.3023060314514705,0.976161639160095,0.28570355000000003,0.7085811969007096
0.0535,1.72844375,1.0,2697.144360912246,0.45294874096325427,1.3017245957540144,0.9764406600725154,0.2856476375,0.7097011107049636
0.054,1.7271,1.0,2694.9632005983617,0.4560172761897487,1.3011376894361293,0.9767123241668476,0.2855912,0.7108293750034099
0.0545,1.7257437500000001,1.0,2692.7659402751046,0.4590685960944743,1.3005452933688144,0.9769768768726096,0.2855342375,0.71196596503142
0.055,1.724375,1.0,2690.554690143998,0.46210279665995246,1.299947388423069,0.9772345531830724,0.28547675,0.7131108551600146
0.0555,1.72299375,1.0,2688.3315571090643,0.4651199738687044,1.299343955469892,0.9774855781834344,0.2854187375,0.714264018889156
0.056,1.7216,1.0,2686.0986447224645,0.4681202237032514,1.2987349753802833,0.9777301675480293,0.2853602,0.7154254288410127
0.0565,1.72019375,1.0,2683.858053139451,0.4711036421461148,1.2981204290252417,0.9779685280086264,0.28530113749999997,0.7165950567532073
0.057,1.718775,1.0,2681.6118790806227,0.4740703251798158,1.2975002972757668,0.9782008577957276,0.28524155,0.7177728734720357
0.0575,1.71734375,1.0,2679.3622158021644,0.4770203687868757,1.2968745610028574,0.9784273470546174,0.2851814375,0.7189588489456655
0.058,1.7159,1.0,2677.1101361691335,0.4799538609996601,1.296243210410809,0.9786481780726154,0.2851208,0.7201529345838557
0.0585,1.71444375,1.0,2674.853465427413,0.4828708657258245,1.2956062655071412,0.9788635254377592,0.2850596375,0.7213550248498775
0.059000000000000004,1.7129750000000001,1.0,2672.600355068906,0.48577152970386483,1.294963651477602,0.979073558586426,0.28499795,0.7225651923054839
0.059500000000000004,1.71149375,1.0,2670.3512854102264,0.48865593972876564,1.2943153638778968,0.9792784390414833,0.2849357375,0.7237833755912666
0.06,1.71,1.0,2668.1067359580493,0.4915241825955114,1.293661398263732,0.9794783220148413,0.284873,0.7250095126587686
0.0605,1.7084937500000001,1.0,2665.8671854126833,0.49437634509908684,1.2930017501908133,0.9796733567009348,0.2848097375,0.7262435407688783
0.061,1.7069750000000001,1.0,2663.6331116712963,0.4972125140344764,1.2923364152148467,0.9798636865543708,0.28474595,0.7274853964902193
0.0615,1.7054437500000001,1.0,2661.404991831586,0.5000327761966648,1.291665388891538,0.9800494495527138,0.2846816375,0.7287350156975381
0.062,1.7039,1.0,2659.1833021966936,0.5028372183806363,1.290988666776593,0.9802307784453066,0.2846168,0.7299923335700922
0.0625,1.70234375,1.0,2656.9685182792923,0.5056259273813758,1.290306244425718,0.9804078009889706,0.2845514375,0.7312572845900358
0.063,1.7007750000000001,1.0,2654.761114807251,0.5083989899938677,1.2896181173946186,0.980580640171367,0.28448555,0.7325298025408065
0.0635,1.69919375,1.0,2652.5615657292797,0.5111564930130966,1.288924281239001,0.9807494144227558,0.28441913750000003,0.733809820505506
0.064,1.6976,1.0,2650.370344220525,0.513898523234047,1.2882247315145707,0.9809142378168295,0.2843522,0.7350972708652859
0.0645,1.69599375,1.0,2648.187922689874,0.5166251674517036,1.287519463777034,0.9810752202612688,0.2842847375,0.7363920852977259
0.065,1.694375,1.0,2646.014772786227,0.5193365124610508,1.2868084735820966,0.9812324676786087,0.28421675,0.7376941947752162
0.0655,1.69274375,1.0,2643.851365406193,0.5220326450570734,1.2860917564854644,0.9813860821779807,0.2841482375,0.7390035295633347
0.066,1.6911,1.0,2641.6981707019213,0.5247136520347556,1.2853693080428434,0.9815361622182487,0.2840792,0.7403200192192243
0.0665,1.6894437500000001,1.0,2639.5556580894086,0.5273796201890824,1.2846411238099398,0.9816828027630303,0.2840096375,0.7416435925899698
0.067,1.687775,1.0,2637.4242962570165,0.530030636315038,1.283907199342459,0.9818260954280612,0.28393955,0.7429741778109735
0.0675,1.68609375,1.0,2635.3045531748135,0.5326667872076072,1.283167530196107,0.9819661286213306,0.2838689375,0.7443117023043266
0.068,1.6844000000000001,1.0,2633.1958776697365,0.5352881156863958,1.2824221213515352,0.9821029852494301,0.2837978,0.7456560758013352
0.0685,1.68269375,1.0,2631.099787329524,0.537894748460718,1.281670958645282,0.9822367499127002,0.2837261375,0.7470072418872701
0.069,1.680975,1.0,2629.0165546937815,0.5404867792447101,1.280914039423247,0.9823675027035064,0.28365395,0.7483651226240895
0.0695,1.67924375,1.0,2626.9460266278365,0.5430642855265914,1.2801513649718939,0.9824953201394151,0.28358123749999997,0.7497296323481656
0.07,1.6775,1.0,2624.8880502971256,0.5456273447945814,1.2793829365776868,0.98262027615668,0.283508,0.7511006847870799
0.07050000000000001,1.67574375,1.0,2622.842473164075,0.5481760345368999,1.2786087555270889,0.9827424422133322,0.2834342375,0.7524781930600983
0.07100000000000001,1.673975,1.0,2620.8091429848196,0.5507104322417663,1.2778288231065642,0.9828618873874726,0.28335995,0.7538620696786399
0.07150000000000001,1.67219375,1.0,2618.787907806355,0.5532306153974004,1.2770431406025764,0.9829786784710242,0.2832851375,0.755252226546751
0.07200000000000001,1.6704,1.0,2616.778615963583,0.5557366614920214,1.276251709301589,0.9830928800591774,0.2832098,0.7566485749615763
0.0725,1.66859375,1.0,2614.7811160758915,0.5582286480138492,1.275454530490066,0.9832045546357565,0.2831339375,0.7580510256138308
0.073,1.6667750000000001,1.0,2612.795257044989,0.5607066524511032,1.2746516054544705,0.9833137626547177,0.28305755,0.7594594885882713
0.0735,1.66494375,1.0,2610.8208880510992,0.5631707522920032,1.273842935481267,0.9834205626179767,0.2829806375,0.7608738733641666
0.074,1.6631,1.0,2608.8578585508426,0.5656210250247685,1.2730285218569186,0.9835250111497557,0.2829032,0.7622940888157721
0.0745,1.6612437500000001,1.0,2606.906018273953,0.5680575481376189,1.2722083658678893,0.9836271630676238,0.2828252375,0.7637200432127975
0.075,1.659375,1.0,2604.965217220844,0.5704803991187738,1.2713824688006425,0.9837270714504011,0.28274675,0.765151644220881
0.0755,1.65749375,1.0,2603.035305659466,0.5728896554564529,1.270550831941642,0.9838247877030812,0.2826677375,0.7665887989020579
