Time [s],Phi [rad],STIM [ ],Fsee [N],Gamma [ ],Lcerel [ ],q [ ],Lmtc [m],fisomrel [ ]
0.0,1.8,1.0,17.96737960847277,1.0040173505794895e-05,1.379339721411012,0.005000026865490101,0.288653,0.5411395910708414
0.0005,1.79999375,1.0,18.27670458057649,0.00561919316486691,1.3793023921844625,0.012940625598465656,0.2886527375,0.5412298956732915
0.001,1.799975,1.0,21.61834162756411,0.011196883242868726,1.3789383061919862,0.035608786199668375,0.28865195,0.5421102044016215
0.0015,1.79994375,1.0,31.069166626418486,0.016743286890439066,1.3780462096397335,0.0706019921514498,0.2886506375,0.5442635949522663
0.002,1.7999,1.0,53.58218049446271,0.022258579598855646,1.3763681451384502,0.11471817655860544,0.2886488,0.5483004442762835
0.0025,1.79984375,1.0,97.11851658347778,0.027742935875307632,1.3739351875496046,0.16457504380761193,0.28864643749999996,0.5541214142609758
0.003,1.7997750000000001,1.0,160.95772381306244,0.03319652925061474,1.371214360338487,0.2172806090310054,0.28864354999999997,0.5605864116023214
0.0035,1.79969375,1.0,237.68288560822347,0.03861953227881723,1.3685847479691304,0.2706130420114264,0.2886401375,0.5667898072848616
0.004,1.7996,1.0,321.46635031282864,0.04401211654795851,1.366156103547542,0.3229159498944362,0.2886362,0.5724799356979646
0.0045000000000000005,1.7994937500000001,1.0,409.267373994076,0.04937445268526953,1.3639228230113998,0.37303464825912497,0.2886317375,0.5776791418731295
0.005,1.799375,1.0,499.41315712580973,0.054706710348258025,1.3618583497214272,0.4202475927375379,0.28862675,0.5824570622987415
0.0055,1.79924375,1.0,590.7901030531722,0.06000905827218207,1.3599388411744513,0.4641738210132059,0.2886212375,0.5868750976211515
0.006,1.7991000000000001,1.0,682.5178212207143,0.06528166421318718,1.3581464199662459,0.5046800756911709,0.2886152,0.5909794064584231
0.006500000000000001,1.79894375,1.0,773.881078188378,0.07052469500392473,1.3564672566844065,0.5418008642778903,0.2886086375,0.5948057873465991
0.007,1.798775,1.0,864.285590844939,0.07573831653715053,1.3548903985558687,0.575676877534794,0.28860155,0.5983826690460992
0.0075,1.79859375,1.0,953.2430925508643,0.08092269377545658,1.3534067810808552,0.606510004217624,0.2885939375,0.601733568514249
0.008,1.7984,1.0,1040.3449480142274,0.0860779903648829,1.3520088452023822,0.6345322564647912,0.2885858,0.604878102357415
0.0085,1.79819375,1.0,1125.31513453359,0.09120437038598453,1.350689228658433,0.6599845035597497,0.2885771375,0.6078350283895193
0.009000000000000001,1.797975,1.0,1207.9002010589718,0.09630199575844642,1.3494420347707747,0.6831042642194485,0.28856795,0.6106194653547853
0.0095,1.79774375,1.0,1287.8914919287847,0.10137102703636411,1.3482621332487952,0.7041175486224235,0.2885582375,0.6132445361766532
0.01,1.7975,1.0,1365.166386165916,0.10641162477383312,1.3471443938018828,0.7232342921784655,0.288548,0.6157231181502658
0.0105,1.79724375,1.0,1439.6599163804071,0.1114239488898386,1.3460839411660213,0.7406467126733166,0.2885372375,0.6180673012340367
0.011,1.796975,1.0,1511.3228080306021,0.11640815813479793,1.3450765463889711,0.756529175464294,0.28852595000000003,0.620287554630932
0.0115,1.79669375,1.0,1580.1208810492278,0.12136440968936377,1.344118484628621,0.771038657111543,0.2885141375,0.6223930756916505
0.012,1.7964,1.0,1646.055687004341,0.1262928601459867,1.343206180452042,0.7843156391655688,0.28850180000000003,0.624392594705103
0.0125,1.79609375,1.0,1709.1731266400652,0.13119366652425404,1.342336044534953,0.7964853701803388,0.2884889375,0.6262947468500085
0.013000000000000001,1.7957750000000001,1.0,1769.5066263049239,0.13606698361491779,1.3415050719409132,0.8076595297268254,0.28847555,0.6281067788221675
0.0135,1.79544375,1.0,1827.0921122610916,0.14091296481519344,1.3407105885914066,0.8179374986740551,0.2884616375,0.6298351237936777
0.014,1.7951000000000001,1.0,1881.9931283249744,0.14573176352229666,1.3399499204079168,0.827407560903401,0.2884472,0.6314861339752902
0.0145,1.79474375,1.0,1934.2807797774315,0.15052353223449436,1.3392205837519628,0.836148219038479,0.2884322375,0.6330656746140866
0.015,1.794375,1.0,1984.0516537295964,0.15528842391708625,1.33852005824984,0.8442292416535382,0.28841675,0.6345796242427454
0.0155,1.79399375,1.0,2031.3727187637123,0.16002658851047405,1.3378463487695673,0.85171286688296,0.2884007375,0.6360326678031629
0.016,1.7936,1.0,2076.314388389795,0.16473817523283585,1.3371975928899151,0.8586545586520471,0.2883842,0.6374291560881602
0.0165,1.7931937500000001,1.0,2118.9613426004057,0.16942333330234988,1.3365719281896546,0.8651037674559403,0.2883671375,0.6387733965392155
0.017,1.792775,1.0,2159.3981814259396,0.17408221090104936,1.3359676263387483,0.8711046813351557,0.28834955,0.6400693687892449
0.0175,1.7923437500000001,1.0,2197.7251672632283,0.17871495701104353,1.3353829161276596,0.876696797693131,0.2883314375,0.6413211083217707
0.018000000000000002,1.7919,1.0,2234.0174933226244,0.18332171742004133,1.3348163843873297,0.8819155803160136,0.2883128,0.6425318518679715
0.0185,1.79144375,1.0,2268.3488347238067,0.1879026370388347,1.3342667180118237,0.8867928596543353,0.2882936375,0.6437045957576656
0.019,1.790975,1.0,2300.8003735050033,0.19245786077821567,1.3337326038952064,0.8913572277258541,0.28827395,0.6448423121725932
0.0195,1.79049375,1.0,2331.454183520694,0.19698753274766753,1.3332127877334974,0.8956344233332039,0.2882537375,0.64594782554487
0.02,1.79,1.0,2360.396056544023,0.20149179740815792,1.3327060387469902,0.8996476480313319,0.288233,0.6470238896086934
0.0205,1.78949375,1.0,2387.7051903328793,0.2059707980165694,1.3322112440007499,0.9034178709628083,0.2882117375,0.6480729890289357
0.021,1.788975,1.0,2413.4439732417263,0.21042467485372163,1.3317274992233157,0.9069640940653744,0.28818995000000003,0.6490971500607305
0.021500000000000002,1.78844375,1.0,2437.678716984662,0.21485356820043428,1.3312539001432269,0.91030352331011,0.2881676375,0.6500983853313174
0.022,1.7879,1.0,2460.4793309787956,0.219257618337527,1.3307895424890233,0.9134517632046454,0.2881448,0.6510786944512204
0.0225,1.78734375,1.0,2481.9139462835687,0.223636964580905,1.330333570303593,0.9164229970776189,0.28812143749999997,0.6520399627885243
0.023,1.786775,1.0,2502.050815669105,0.22799174630519642,1.3298851541834087,0.9192301331026466,0.28809755,0.6529840084483057
0.0235,1.78619375,1.0,2520.9613191180392,0.23232210332451278,1.3294434599115874,0.921884931140145,0.28807313749999996,0.6539126489843186
0.024,1.7856,1.0,2538.6954191846453,0.2366281708147074,1.329007877659151,0.9243981598674503,0.2880482,0.654827220785144
0.0245,1.78499375,1.0,2555.3049360351843,0.24091008395163363,1.3285777975971218,0.9267796584084289,0.2880227375,0.6557290526984212
0.025,1.784375,1.0,2570.8433926040284,0.24516797791114478,1.3281526098965215,0.9290384293235412,0.28799675,0.6566194662567009
0.025500000000000002,1.78374375,1.0,2585.3658679946725,0.2494019878690942,1.3277317047283723,0.9311827211668522,0.2879702375,0.6574997758795759
0.026000000000000002,1.7831000000000001,1.0,2598.922480857981,0.2536122474674205,1.327314531678307,0.9332201108876081,0.2879432,0.6583711650261816
0.0265,1.78244375,1.0,2611.5644105309134,0.2577988911553889,1.326900541865216,0.9351575599007647,0.2879156375,0.6592348078068501
0.027,1.781775,1.0,2623.3475258055423,0.26196205383205434,1.326489153249263,0.9370014667988185,0.28788755,0.6600919413602653
0.0275,1.7810937500000001,1.0,2634.3086912086796,0.26610186516368994,1.3260799692376493,0.938757750798272,0.2878589375,0.660943410911906
0.028,1.7804,1.0,2644.4855523532765,0.2702184548165688,1.3256725932375757,0.9404318699978563,0.2878298,0.6617900574423232
0.0285,1.77969375,1.0,2653.9164686586832,0.27431195245696416,1.3252666286562438,0.9420288633508596,0.2878001375,0.6626327177378866
0.029,1.778975,1.0,2662.64044955834,0.27838248775114915,1.3248616789008547,0.9435533883109182,0.28776995,0.6634722244314987
0.029500000000000002,1.7782437500000001,1.0,2670.697094194088,0.28243019036539696,1.3244573473786094,0.945009754644353,0.2877392375,0.6643094060332793
0.03,1.7775,1.0,2678.119963625687,0.2864551872779956,1.3240532977945487,0.9464019619648172,0.287708,0.6651449623357064
0.0305,1.77674375,1.0,2684.949537275362,0.2904576091282312,1.3236491345367374,0.9477337128767326,0.2876762375,0.6659797120970053
0.031,1.775975,1.0,2691.2172301201176,0.29443758253730357,1.3232445489360347,0.9490084545648548,0.28764395,0.666814290762562
0.0315,1.7751937500000001,1.0,2696.9491599933162,0.29839523167250187,1.3228392839254755,0.9502293961721286,0.2876111375,0.6676492243446628
0.032,1.7744,1.0,2702.1717341111134,0.3023306807011154,1.3224330824380939,0.9513995229129675,0.2875778,0.66848503619091
0.0325,1.77359375,1.0,2706.9116215023614,0.3062440537904334,1.322025687406924,0.9525216144414536,0.2875439375,0.6693222469709759
0.033,1.772775,1.0,2711.1957269036247,0.3101354751077451,1.3216168417650007,0.9535982615014296,0.28750955,0.6701613746591406
0.0335,1.7719437500000002,1.0,2715.0511661197206,0.31400506882033974,1.321206288445358,0.9546318810375519,0.2874746375,0.6710029345126196
0.034,1.7711000000000001,1.0,2718.4971344221094,0.31785295062189195,1.3207938442325122,0.9556247359572524,0.2874392,0.6718472879544857
0.0345,1.7702437500000001,1.0,2721.5701439085487,0.3216792549615936,1.3203791696243805,0.9565789288589711,0.2874032375,0.6726951137461493
0.035,1.7693750000000001,1.0,2724.2883015037764,0.3254841008986127,1.319962094095886,0.9574964409081953,0.28736675,0.6735467421612735
0.035500000000000004,1.76849375,1.0,2726.668529542187,0.3292676062574215,1.3195424588948041,0.9583791278149256,0.2873297375,0.6744024775620612
0.036000000000000004,1.7676,1.0,2728.727846392633,0.3330298888624925,1.31912010526891,0.9592287283439224,0.2872922,0.675262622490943
0.0365,1.76669375,1.0,2730.4833558777077,0.33677106653829797,1.318694874465979,0.9600468730135959,0.2872541375,0.6761274776438582
0.037,1.765775,1.0,2731.9522372513466,0.34049125710931044,1.3182666077337863,0.9608350920536676,0.28721555,0.6769973418419266
0.0375,1.76484375,1.0,2733.1517357360226,0.34419057840000217,1.3178351463201075,0.9615948226923219,0.2871764375,0.6778725120015175
0.038,1.7639,1.0,2734.0991536177235,0.34786914823484566,1.3174003314727174,0.9623274158361412,0.28713679999999997,0.6787532831027077
0.0385,1.76294375,1.0,2734.8118419006923,0.3515270844383132,1.3169620044393917,0.9630341421995423,0.28709663750000003,0.6796399481561322
0.039,1.761975,1.0,2735.300213134086,0.3551644967201653,1.3165200698405466,0.9637162022209759,0.28705595,0.6805326702427791
0.0395,1.7609937500000001,1.0,2735.581669266568,0.3587815066989692,1.3160743691290202,0.964374723235994,0.2870147375,0.6814317384556502
0.04,1.76,1.0,2735.674132759674,0.362378235919841,1.3156247392900826,0.9650107674722571,0.286973,0.6823374488139904
0.0405,1.7589937500000001,1.0,2735.5868062040618,0.36595479484066856,1.3151710966817014,0.9656253418780003,0.2869307375,0.6832499356392017
0.041,1.757975,1.0,2735.32890994741,0.36951129391933984,1.3147133576618435,0.9662193969311819,0.28688795,0.6841693319808947
0.0415,1.75694375,1.0,2734.9096791445586,0.3730478436137427,1.3142514385884763,0.9667938303909056,0.2868446375,0.6850957695952588
0.042,1.7559,1.0,2734.3383609631155,0.37656455438176506,1.3137852558195673,0.9673494907622282,0.28680079999999997,0.686029378922987
0.0425,1.75484375,1.0,2733.6242119441804,0.3800615366812948,1.3133147257130835,0.9678871804989662,0.2867564375,0.6869702890667578
0.043000000000000003,1.753775,1.0,2732.776495517454,0.38353890097021975,1.3128397646269923,0.9684076589667876,0.28671155,0.6879186277682656
0.043500000000000004,1.75269375,1.0,2731.804479672741,0.38699675770642794,1.3123602889192612,0.9689116451867726,0.28666613750000003,0.6888745213848078
0.044,1.7516,1.0,2730.717434785186,0.39043521734780706,1.3118762149478571,0.9693998203777497,0.2866202,0.6898380948654275
0.0445,1.75049375,1.0,2729.5246315968043,0.39385439035224523,1.3113874590707475,0.9698728303140269,0.2865737375,0.6908094717266058
0.045,1.7493750000000001,1.0,2728.232232465946,0.39725438106953925,1.3108939658928753,0.9703312887969321,0.28652675,0.6917887180210449
0.0455,1.74824375,1.0,2726.8461091789277,0.40063529556573896,1.310395682661112,0.9707757788031571,0.2864792375,0.6927758934481576
0.046,1.7471,1.0,2725.379890125701,0.4039972555697573,1.3098924860568917,0.9712068508032312,0.2864312,0.6937711960633903
0.0465,1.7459437500000001,1.0,2723.8379705344855,0.4073403638557917,1.3093843366783595,0.9716250313291162,0.28638263750000004,0.6947746563076898
0.047,1.744775,1.0,2722.224744044607,0.41066472319803965,1.3088711951236622,0.9720308208893749,0.28633355,0.6957863036443896
0.0475,1.74359375,1.0,2720.5446021191665,0.4139704363706986,1.3083530219909452,0.9724246954971892,0.28628393750000003,0.696806166546721
0.048,1.7424,1.0,2718.8019334912433,0.41725760614796603,1.3078297778783547,0.9728071080948314,0.2862338,0.6978342724852129
0.0485,1.74119375,1.0,2717.001123645709,0.4205263353040395,1.3073014233840365,0.9731784898825102,0.2861831375,0.6988706479150035
0.049,1.739975,1.0,2715.1465543341737,0.42377672661311633,1.3067679191061368,0.9735392515588345,0.28613195,0.6999153182630444
0.0495,1.73874375,1.0,2713.2426031254754,0.42700888284939403,1.3062292256428012,0.9738897844795266,0.2860802375,0.7009683079152116
0.05,1.7375,1.0,2711.2936429900637,0.4302229067870701,1.305685303592176,0.9742304617404711,0.286028,0.7020296402033137
0.0505,1.73624375,1.0,2709.3040419187378,0.433418901200342,1.3051361135524069,0.9745616391906762,0.2859752375,0.7030993373920047
0.051000000000000004,1.734975,1.0,2707.278162576072,0.4365969688634072,1.30458161612164,0.9748836563802705,0.28592195,0.7041774206655931
0.051500000000000004,1.73369375,1.0,2705.2202258261755,0.4397572108818645,1.304021773141222,0.9751968373458573,0.2858681375,0.7052639077042964
0.052000000000000005,1.7324,1.0,2703.1333759285294,0.44289970805379847,1.303456556233917,0.9755014899976546,0.2858138,0.7063587961691694
0.0525,1.73109375,1.0,2701.0235672255562,0.44602459198464617,1.302885911306574,0.9757979123235416,0.28575893750000003,0.7074621324361804
0.053,1.729775,1.0,2698.8926334971434,0.449131957444021,1.3023098218510436,0.9760863875887297,0.28570355000000003,0.7085738890701221
0.0535,1.72844375,1.0,2696.7424059550804,0.4522218992015362,1.3017282713591756,0.976367186676072,0.2856476375,0.7096940378271802
0.054,1.7271,1.0,2694.574713172549,0.45529451202680493,1.3011412433228204,0.9766405687302233,0.2855912,0.7108225496491896
0.0545,1.7257437500000001,1.0,2692.3913810197846,0.45834989068944054,1.300548721233828,0.976906781763018,0.2855342375,0.7119593946578786
0.055,1.724375,1.0,2690.194232605553,0.4613881299590562,1.2999506885840488,0.9771660632227064,0.28547675,0.7131045421490911
0.0555,1.72299375,1.0,2687.985088225289,0.4644093246052652,1.2993471288653329,0.9774186405294891,0.2854187375,0.7142579605869955
0.056,1.7216,1.0,2685.7657653142605,0.4674135693976808,1.2987380255695302,0.9776647315796085,0.2853602,0.7154196175982739
0.0565,1.72019375,1.0,2683.5380784079925,0.4704009591059162,1.2981233621884913,0.9779045452200886,0.28530113749999997,0.7165894799662935
0.057,1.718775,1.0,2681.3038391077434,0.4733715884995847,1.297503122214066,0.9781382816960508,0.28524155,0.717767513625263
0.0575,1.71734375,1.0,2679.064856052294,0.4763255523482996,1.2968772891381048,0.9783661330724079,0.2851814375,0.718953683654369
0.058,1.7159,1.0,2676.8229348961618,0.4792629454216741,1.2962458464524576,0.9785882836315899,0.2851208,0.7201479542718972
0.0585,1.71444375,1.0,2674.5798782935035,0.4821838624893214,1.2956087776489746,0.9788049102488507,0.2850596375,0.7213502888293337
0.059000000000000004,1.7129750000000001,1.0,2672.337485887864,0.48508839832085476,1.2949660662195062,0.979016182746582,0.28499795,0.7225606498054525
0.059500000000000004,1.71149375,1.0,2670.094183673421,0.4879765948722078,1.2943177266326418,0.9792222615390411,0.2849357375,0.7237789406562294
0.06,1.71,1.0,2667.8554205596433,0.49084860533491864,1.2936637088123153,0.979423306439637,0.284873,0.7250051853526649
0.0605,1.7084937500000001,1.0,2665.6223504797335,0.49370452716899443,1.2930040021031404,0.9796194685575017,0.2848097375,0.7262393327536445
0.061,1.7069750000000001,1.0,2663.395315944457,0.49654444574604895,1.2923386032984663,0.9798108925966071,0.28474595,0.7274813170328507
0.0615,1.7054437500000001,1.0,2661.1746588956044,0.4993684464376961,1.291667509191643,0.979997717729536,0.2846816375,0.7287310716898688
0.062,1.7039,1.0,2658.960720710095,0.5021766146155499,1.2909907165760204,0.9801800778490699,0.2846168,0.7299885295490248
0.0625,1.70234375,1.0,2656.753842203132,0.5049690356512239,1.2903082222449482,0.9803581018064935,0.2845514375,0.7312536227582198
0.063,1.7007750000000001,1.0,2654.5543636322745,0.5077457949163323,1.2896200229917765,0.9805319136374147,0.28448555,0.7325262827877643
0.0635,1.69919375,1.0,2652.362624701927,0.5105069777824889,1.2889261156098546,0.9807016327758359,0.28441913750000003,0.7338064404292122
0.064,1.6976,1.0,2650.178964566926,0.5132526696213074,1.2882264968925325,0.9808673742571773,0.2843522,0.735094025794193
0.0645,1.69599375,1.0,2648.003721837843,0.515982955804402,1.28752116363316,0.981029248910891,0.2842847375,0.736388968313245
0.065,1.694375,1.0,2645.8372345856073,0.5186979217033864,1.286810112625087,0.9811873635432766,0.28421675,0.7376911967346457
0.0655,1.69274375,1.0,2643.6798403462317,0.5213976526898744,1.2860933406616633,0.9813418211110619,0.2841482375,0.7390006391232447
0.066,1.6911,1.0,2641.5318761265394,0.52408223413548,1.2853708445362384,0.9814927208862771,0.2840792,0.7403172228592922
0.0665,1.6894437500000001,1.0,2639.393678409599,0.5267517514118172,1.2846426210421624,0.9816401586129204,0.2840096375,0.7416408746372702
0.067,1.687775,1.0,2637.265583159877,0.5294062898904995,1.283908666972785,0.9817842266558746,0.28393955,0.7429715204647201
0.0675,1.68609375,1.0,2635.1479258301006,0.5320459349431412,1.283168979121456,0.9819250141425152,0.2838689375,0.7443090856610728
0.068,1.6844000000000001,1.0,2633.0410413667964,0.534670771941356,1.2824235542815252,0.9820626070974117,0.2837978,0.7456534948564745
0.0685,1.68269375,1.0,2630.9452642169003,0.5372808862567579,1.2816723892463424,0.9821970885705082,0.2837261375,0.7470046719906154
0.069,1.680975,1.0,2628.8609283344967,0.5398763632609604,1.2809154808092573,0.9823285387591395,0.28365395,0.7483625403115555
0.0695,1.67924375,1.0,2626.7883671873983,0.5424572883255778,1.2801528257636197,0.9824570351242204,0.28358123749999997,0.7497270223745502
0.07,1.6775,1.0,2624.7334144494152,0.545023741161141,1.279384369915509,0.9825826497753862,0.283508,0.7510981308893943
0.07050000000000001,1.67574375,1.0,2622.690426014735,0.5475757982361733,1.2786101654191027,0.9827054570934328,0.2834342375,0.7524756878990442
0.07100000000000001,1.673975,1.0,2620.6567281858147,0.5501135402549279,1.2778302369559014,0.9828255279944443,0.28335995,0.7538595645185833
0.07150000000000001,1.6721963408901386,1.0,2618.7582116582353,0.5526370476031047,1.2770445862562012,0.9829429299837287,0.28328524631738583,0.7552496722772012
0.07200000000000001,1.6704168890112525,1.0,2617.4052831424465,0.5551464000206725,1.2762535193857125,0.9830577421060654,0.2832105093384726,0.7566453859279584
0.0725,1.6686374371323667,1.0,2616.5917085937504,0.5576416769839116,1.2754574483219892,0.9831700456972718,0.2831357723595594,0.7580458997574575
0.073,1.6668579852534806,1.0,2616.272582689463,0.5601229574106413,1.2746567876407122,0.9832799196984469,0.2830610353806462,0.7594504113612395
0.0735,1.6650785333745945,1.0,2616.415643989641,0.5625903179460711,1.273851836015703,0.983387435378597,0.28298629840173295,0.7608583287972849
0.074,1.6632990814957085,1.0,2616.9669466074106,0.5650438398495782,1.2730430945758409,0.9834926710855167,0.28291156142281976,0.7622687133432666
0.0745,1.6615196296168224,1.0,2617.8905393062937,0.56748360114221,1.2722308981937762,0.9835956953795874,0.28283682444390656,0.7636809249636793
0.075,1.6597401777379364,1.0,2619.161011859304,0.5699096777372813,1.27141548448127,0.9836965704263122,0.2827620874649933,0.7650944986728238
