Time [s],Phi [rad],STIM [ ],Fsee [N],Gamma [ ],Lcerel [ ],q [ ],Lmtc [m],fisomrel [ ]
0.0,1.8,1.0,19.188262876909928,0.0011284281503651779,1.3792051902882208,0.005326727877191803,0.288653,0.5414649989109512
0.0005,1.79999375,1.0,19.82212211800149,0.00673130786961737,1.3791342093027215,0.016334574253268407,0.2886527375,0.5416366432920925
0.001,1.799975,1.0,23.998176544193374,0.012302759863712402,1.3787015855946938,0.04167191277868822,0.28865195,0.5426821079976557
0.0015,1.79994375,1.0,35.36169447924834,0.017842960417515867,1.3776923283710698,0.07874590282070208,0.2886506375,0.5451164065358418
0.002,1.7999,1.0,61.60186326350775,0.02335208482679703,1.3758660025615714,0.12426331203263755,0.2886488,0.5495049366019924
0.0025,1.79984375,1.0,109.5711564786196,0.028830307404044984,1.3733532160238797,0.17489593183029514,0.28864643749999996,0.5555082145555683
0.003,1.7997750000000001,1.0,176.5229273698564,0.034277801484317576,1.3706451820657723,0.22788654174003192,0.28864354999999997,0.561932873123184
0.0035,1.79969375,1.0,254.92351329154772,0.039694739430634354,1.368062986562911,0.28113246481101667,0.2886401375,0.5680154270484388
0.004,1.7996,1.0,339.61117549569536,0.04508129263788864,1.365682112786423,0.3330806970205085,0.2886362,0.5735860726660008
0.0045000000000000005,1.7994937500000001,1.0,427.92687005412154,0.050437631541569,1.3634896951290265,0.38266910877499044,0.2886317375,0.5786838059152021
0.005,1.799375,1.0,518.3440782946881,0.05576392558774747,1.3614598107382547,0.42925169293116955,0.28862675,0.5833762921590087
0.0055,1.79924375,1.0,609.8250863534435,0.06106034340905299,1.3595698919462802,0.47250367179715136,0.2886212375,0.5877215969570804
0.006,1.7991000000000001,1.0,701.5064479496563,0.06632705246483966,1.3578036251074093,0.5123312061925799,0.2886152,0.5917620084821318
0.006500000000000001,1.79894375,1.0,792.7031436127089,0.07156421943238814,1.356147881905079,0.5487942231549143,0.2886086375,0.5955315249187689
0.007,1.798775,1.0,882.8464901863942,0.076772010085974,1.3545921731423953,0.5820486629699875,0.28860155,0.5990573684507448
0.0075,1.79859375,1.0,971.452058720599,0.08195058900120489,1.3531280332169997,0.6123046596902955,0.2885939375,0.6023615821310382
0.008,1.7984,1.0,1058.16450251105,0.0871001204329589,1.3517476003944748,0.6397971312091497,0.2885858,0.6054643674002833
0.0085,1.79819375,1.0,1142.6707602809843,0.09222076696743862,1.350444476992308,0.664767520653236,0.2885771375,0.6083822338826137
0.009000000000000001,1.797975,1.0,1224.737022128736,0.09731269051865366,1.3492127757679586,0.6874514473637081,0.28856795,0.6111302207922114
0.0095,1.79774375,1.0,1304.2075076449125,0.10237605266082223,1.3480469081828435,0.7080717202796294,0.2885582375,0.6137224161491179
0.01,1.7975,1.0,1380.9535762769085,0.107411013403443,1.3469420689382636,0.7268350040287809,0.288548,0.6161709209210369
0.0105,1.79724375,1.0,1454.8924427066254,0.11241773175828297,1.3458937960775987,0.7439301077545662,0.2885372375,0.6184868680963921
0.011,1.796975,1.0,1525.981680445555,0.11739636603493213,1.3448979140686943,0.759527845835599,0.28852595000000003,0.620680576757218
0.0115,1.79669375,1.0,1594.2325540913253,0.12234707495529965,1.3439502736589193,0.7737816140681488,0.2885141375,0.6227621468429674
0.012,1.7964,1.0,1659.632258529452,0.12727001425502343,1.3430475953169503,0.7868289048940806,0.28850180000000003,0.6247396280205928
0.0125,1.79609375,1.0,1722.1978267786783,0.13216533928096208,1.3421867179763982,0.7987922898969677,0.2884889375,0.6266206952823371
0.013000000000000001,1.7957750000000001,1.0,1781.978893074851,0.13703320514186482,1.3413645178751827,0.8097808102958824,0.28847555,0.6284128378056252
0.0135,1.79544375,1.0,1839.0412631508364,0.14187376639710927,1.3405780519785258,0.8198914346570283,0.2884616375,0.630123056474849
0.014,1.7951000000000001,1.0,1893.448281879604,0.14668717655122912,1.3398247159121952,0.8292104307482233,0.2884472,0.6317575333392724
0.0145,1.79474375,1.0,1945.2552702487997,0.15147358695643812,1.3391022530937855,0.8378145678881671,0.2884322375,0.6333216261056067
0.015,1.794375,1.0,1994.5380349575287,0.1562331489649502,1.3384084069408904,0.8457720923349018,0.28841675,0.634820631733829
0.0155,1.79399375,1.0,2041.3785206569394,0.16096601296393798,1.33774105306347,0.8531437693631944,0.2884007375,0.6362595059807985
0.016,1.7936,1.0,2085.875389992465,0.16567233038565285,1.3370980649272468,0.8599837255523346,0.2883842,0.6376431588721483
0.0165,1.7931937500000001,1.0,2128.105437412346,0.1703522497748721,1.3364776961040938,0.8663403461878869,0.2883671375,0.6389756378331668
0.017,1.792775,1.0,2168.1394026997623,0.17500591809913238,1.3358783874225337,0.8722568939213668,0.28834955,0.6402605512195101
0.0175,1.7923437500000001,1.0,2206.058631354939,0.17963348232597043,1.3352985797110897,0.8777720598471972,0.2883314375,0.6415014746292285
0.018000000000000002,1.7919,1.0,2241.954178364401,0.18423508942292294,1.3347367137982846,0.8829205004691323,0.2883128,0.6427019529194047
0.0185,1.79144375,1.0,2275.9045060112335,0.1888108843873729,1.3341914441298257,0.8877333618752662,0.2882936375,0.643865046780681
0.019,1.790975,1.0,2308.011467469981,0.19336101458120694,1.3336612678260746,0.8922385934241402,0.28827395,0.6449941274001801
0.0195,1.79049375,1.0,2338.3409496201275,0.19788562247207026,1.333145106399069,0.8964614504416317,0.2882537375,0.6460916392932177
0.02,1.79,1.0,2366.96208797876,0.20238485028037279,1.3326419035865724,0.900424703966044,0.288233,0.6471599616655022
0.0205,1.78949375,1.0,2393.9490347142673,0.20685884022652445,1.3321506031263484,0.9041489140208776,0.2882117375,0.6482014567691423
0.021,1.788975,1.0,2419.3805353344924,0.2113077345309351,1.3316701487561609,0.9076526744528577,0.28818995000000003,0.6492184707400068
0.021500000000000002,1.78844375,1.0,2443.322823354058,0.2157316729712217,1.3311996447186956,0.9109528603560252,0.2881676375,0.6502129953386793
0.022,1.7879,1.0,2465.862810121902,0.2201307988446142,1.3307380311084016,0.9140647495579906,0.2881448,0.6511873557989094
0.0225,1.78734375,1.0,2487.0562807554525,0.224505249696164,1.3302845778085093,0.9170022867083271,0.28812143749999997,0.652143168564588
0.023,1.786775,1.0,2506.9599506504183,0.2288551627929527,1.3298385707581277,0.9197781637405763,0.28809755,0.6530820065058532
0.0235,1.78619375,1.0,2525.632915593325,0.23318067540206194,1.3293992958963654,0.9224039470332164,0.28807313749999996,0.6540054332365393
0.024,1.7856,1.0,2543.1364501528815,0.2374819247905734,1.3289660391623317,0.9248901927706765,0.2880482,0.6549150034370129
0.0245,1.78499375,1.0,2559.5260446183374,0.24175904650425706,1.328538159454737,0.9272465610810326,0.2880227375,0.655812110274534
0.025,1.784375,1.0,2574.863739254049,0.24601217792853863,1.3281149704370565,0.9294818865111822,0.28799675,0.6566982339766886
0.025500000000000002,1.78374375,1.0,2589.206370223017,0.2502414548310604,1.3276958494416176,0.9316042759748512,0.2879702375,0.6575747138352575
0.026000000000000002,1.7831000000000001,1.0,2602.5959052078347,0.2544470091697172,1.3272803251944625,0.9336211923263569,0.2879432,0.6584425661371394
0.0265,1.78244375,1.0,2615.07542141699,0.2586289729024038,1.3268679264216328,0.9355394930587198,0.2879156375,0.6593028019031316
0.027,1.781775,1.0,2626.6890114798844,0.26278747798701496,1.3264581818491707,0.9373654875172343,0.28788755,0.6601564269889469
0.0275,1.7810937500000001,1.0,2637.481694265681,0.2669226563814456,1.3260506202031181,0.9391049880095407,0.2878589375,0.6610044421720728
0.028,1.7804,1.0,2647.49845667504,0.2710346396483866,1.3256447782754917,0.9407633565523357,0.2878298,0.6618478264729142
0.0285,1.77969375,1.0,2656.7775809626205,0.27512355589585086,1.325240261599399,0.9423455532088248,0.2878001375,0.6626874114628651
0.029,1.778975,1.0,2665.3700570916485,0.27918954036202365,1.3248365646595979,0.9438561507838799,0.28776995,0.6635242546560934
0.029500000000000002,1.7782437500000001,1.0,2673.30575850834,0.2832327193288039,1.3244333818371592,0.9452994058333856,0.2877392375,0.6643589947375768
0.03,1.7775,1.0,2680.6150172473494,0.28725321907809054,1.324030407513154,0.9466792622501813,0.287708,0.6651922672412609
0.0305,1.77674375,1.0,2687.3285832317347,0.2912511658917827,1.3236273360686526,0.9479993781920251,0.2876762375,0.6660247045571028
0.031,1.775975,1.0,2693.4775856437154,0.29522668605177915,1.323223861884726,0.9492631503727824,0.28764395,0.6668569359321541
0.0315,1.7751937500000001,1.0,2699.0934963664718,0.2991799058399791,1.3228196793424454,0.9504737360035971,0.2876111375,0.6676895874656912
0.032,1.7744,1.0,2704.208095496599,0.3031109515382814,1.3224144828228812,0.9516340726367938,0.2875778,0.6685232820983866
0.0325,1.77359375,1.0,2708.851137846696,0.30701994764925244,1.3220079877026263,0.952746898113815,0.2875439375,0.669358596478652
0.033,1.772775,1.0,2713.048637840723,0.31090701822349337,1.32159994563261,0.9538147688340356,0.28750955,0.670196029875964
0.0335,1.7719437500000002,1.0,2716.822664716753,0.31477228531153334,1.3211901460359614,0.9548400738846021,0.2874746375,0.6710360015605796
0.034,1.7711000000000001,1.0,2720.195348764106,0.31861587087547943,1.3207783793140775,0.9558250445660681,0.2874392,0.6718789265453885
0.0345,1.7702437500000001,1.0,2723.1895417043484,0.32243789584958443,1.3203644306736724,0.95677176576212,0.2874032375,0.6727252281860133
0.035,1.7693750000000001,1.0,2725.8429319063557,0.3262384708650691,1.3199479516001322,0.9576821711570201,0.28736675,0.6735756003408147
0.035500000000000004,1.7684976590190713,1.0,2728.338925753863,0.33001773763204484,1.3195290354323894,0.9585581256805358,0.287329901678801,0.67442983263918
0.036000000000000004,1.767620044638768,1.0,2731.07268903937,0.3337758119150805,1.3191078455149454,0.9594013774859211,0.28729304187482824,0.6752875731212045
0.0365,1.7667424302584644,1.0,2734.04018676071,0.3375128094787448,1.318684545192302,0.9602135657509685,0.2872561820708555,0.6761484714782388
0.037,1.765864815878161,1.0,2737.223801462249,0.3412288460876066,1.3182592978089605,0.960996228701874,0.28721932226688274,0.6770121790757253
0.0375,1.7649872014978576,1.0,2740.6059005007282,0.34492403750623474,1.3178322667094224,0.9617508109612363,0.28718246246291,0.6778783489743321
0.038,1.764109587117554,1.0,2744.168829288767,0.34859849949919786,1.31740361523819,0.9624786702838899,0.2871456026589373,0.6787466359493846
0.0385,1.7632319727372505,1.0,2747.8949051312748,0.35225234783106485,1.3169735067397643,0.9631810837376774,0.2871087428549645,0.6796166965085988
0.039,1.7623543583569472,1.0,2751.766411653005,0.3558856982664045,1.316542104558647,0.9638592533803874,0.2870718830509918,0.6804881889081078
0.0395,1.7614767439766437,1.0,2755.7655938169205,0.3594986665697855,1.3161095720393399,0.9645143114788917,0.287035023247019,0.6813607731667902
0.04,1.7605991295963401,1.0,2759.8746535356386,0.3630913685057768,1.3156760725263443,0.9651473253118681,0.2869981634430463,0.6822341110788973
0.0405,1.7597215152160368,1.0,2764.0757458728326,0.36666391983894703,1.3152417693641623,0.9657593015933774,0.2869613036390736,0.6831078662249755
0.041,1.7588439008357333,1.0,2768.3594869928966,0.37021643090781226,1.314806749078942,0.9663511829687111,0.2869244438351008,0.6839818582090182
0.0415,1.7579662864554297,1.0,2772.7137788884615,0.3737490185581826,1.3143711224404213,0.966923863054152,0.286887584031128,0.6848558589781557
0.042,1.7570886720751262,1.0,2777.130635163091,0.3772617934111498,1.3139349628444132,0.9674781822983873,0.2868507242271553,0.6857297165302196
0.0425,1.7562110576948229,1.0,2781.6033727132162,0.38075486481335885,1.313498331737076,0.9680149344442328,0.2868138644231826,0.6866033035652749
0.043000000000000003,1.7553334433145193,1.0,2786.125288095394,0.3842283421114548,1.3130612905645698,0.9685348707290486,0.2867770046192098,0.687476493463157
0.043500000000000004,1.7544558289342158,1.0,2790.689656926494,0.3876823346520827,1.3126239007730527,0.9690387025909314,0.2867401448152371,0.6883491602852057
0.044,1.7535782145539125,1.0,2795.2897333660035,0.39111695178188743,1.3121862238086845,0.9695271041766288,0.2867032850112643,0.689221178775746
0.0445,1.752700600173609,1.0,2799.91874968384,0.3945323028475142,1.311748321117624,0.97000071466753,0.2866664252072916,0.6900924243633382
0.045,1.7518229857933054,1.0,2804.5704744732325,0.397928496065192,1.3113102491373148,0.9704601398942134,0.28662956540331885,0.6909627831060683
0.0455,1.750945371413002,1.0,2809.2421726220937,0.4013056342932424,1.3108720327945003,0.9709059518020332,0.2865927055993461,0.691832204165227
0.046,1.7500677570326986,1.0,2813.924344320968,0.40466383583260285,1.3104337574935332,0.9713387002354548,0.28655584579537335,0.692700517246321
0.0465,1.749190142652395,1.0,2818.614573701328,0.408003204079382,1.3099954449909055,0.9717589009648891,0.2865189859914006,0.6935676788421253
0.047,1.7483125282720917,1.0,2823.310436810559,0.41132384242968856,1.3095571170431095,0.9721670444002228,0.28648212618742785,0.6944336456886435
0.0475,1.7474349138917882,1.0,2828.0095015986913,0.41462585427963117,1.309118795406638,0.9725635970775619,0.28644526638345513,0.695298374765144
0.048,1.7465572995114846,1.0,2832.70932791663,0.41790934302531846,1.3086805018379826,0.9729490030454078,0.28640840657948236,0.6961618232941685
0.0485,1.745679685131181,1.0,2837.4074675243833,0.42117441206285905,1.3082422580936361,0.9733236851579401,0.2863715467755096,0.6970239487415057
0.049,1.7448020707508778,1.0,2842.1014641097468,0.42442116478836167,1.307804085930091,0.9736880462824338,0.28633468697153686,0.6978847088161388
0.0495,1.7439244563705742,1.0,2846.7888533175187,0.4276497045979349,1.3073660071038395,0.9740424704272508,0.28629782716756413,0.698744061470161
0.05,1.7430468419902707,1.0,2851.467162789375,0.43086013488768743,1.306928043371374,0.9743873237963024,0.28626096736359136,0.6996019648986608
0.0505,1.7421692276099674,1.0,2856.135619528315,0.43405254765056367,1.306490201318284,0.9747229534880794,0.28622410755961863,0.7004584071934878
0.051000000000000004,1.7412916132296639,1.0,2860.7931119485825,0.4372270426245261,1.3060524905156723,0.9750496919096098,0.28618724775564586,0.7013133706924564
0.051500000000000004,1.7404139988493603,1.0,2865.4348986468976,0.44038374600055363,1.30561495270601,0.9753678614405029,0.28615038795167314,0.7021667751355336
0.052000000000000005,1.739536384469057,1.0,2870.0606140979858,0.4435227533301213,1.3051775907092178,0.9756777642449271,0.2861135281477004,0.7030186164825165
0.0525,1.7386587700887535,1.0,2874.6698919540263,0.44664416016470443,1.3047404073452178,0.975979689149851,0.28607666834372764,0.7038688907240775
0.053,1.73778115570845,1.0,2879.2623650561395,0.44974806205577833,1.304303405433931,0.9762739123491305,0.2860398085397549,0.7047175938817365
0.0535,1.7369035413281466,1.0,2883.8376654450703,0.4528345545548181,1.303866587795279,0.9765606980645907,0.28600294873578214,0.7055647220078252
0.054,1.736025926947843,1.0,2888.3954243730573,0.45590373321329897,1.3034299572491834,0.976840299167075,0.2859660889318094,0.7064102711854552
0.0545,1.7351483125675395,1.0,2892.9352723151064,0.45895569358269617,1.3029935166155655,0.9771129577602081,0.28592922912783664,0.7072542375284854
0.055,1.734270698187236,1.0,2897.456838981149,0.46199053121448497,1.3025572687143467,0.9773789057294024,0.2858923693238639,0.7080966171814879
0.0555,1.7333930838069327,1.0,2901.9597533275614,0.46500834166014055,1.3021212163654488,0.977638365258454,0.28585550951989114,0.708937406319712
0.056,1.7325154694266292,1.0,2906.443643569846,0.46800922047113813,1.3016853623887927,0.9778915493158935,0.2858186497159184,0.7097766011490523
0.0565,1.7316378550463256,1.0,2910.9081371943707,0.47099326319895296,1.3012497096043003,0.9781386621130986,0.2857817899119457,0.7106141979060101
0.057,1.7307602406660223,1.0,2915.352860971163,0.4739605653950602,1.3008142608318927,0.9783798995360226,0.2857449301079729,0.7114501928576595
0.0575,1.7298826262857188,1.0,2919.777440966748,0.4769112226109351,1.3003790188914917,0.9786154495522636,0.2857080703040002,0.71228458230161
0.058,1.7290050119054152,1.0,2924.181502556517,0.47984533039805294,1.2999439866030185,0.9788454925950707,0.2856712105000274,0.7131173625659704
0.0585,1.728127397525112,1.0,2928.5647704625376,0.48276297909095806,1.299509165908656,0.9790702014364272,0.2856343506960547,0.7139485316859095
0.059000000000000004,1.7272497831448084,1.0,2932.928122547553,0.4856642225214314,1.2990745486357886,0.9792897384622837,0.285597490892082,0.714778107009883
0.059500000000000004,1.7263721687645048,1.0,2937.2707097048387,0.4885492148473404,1.2986401417707152,0.9795042688250681,0.2855606310881092,0.7156060769233645
0.06,1.7254945543842015,1.0,2941.592721081188,0.49141804224176666,1.2982059431908606,0.9797139451904856,0.2855237712841365,0.7164324472118917
0.0605,1.724616940003898,1.0,2945.8943468262737,0.49427079087779197,1.29777195077365,0.9799189143718066,0.2854869114801637,0.7172572236366548
0.061,1.7237393256235944,1.0,2950.1757780834064,0.49710754692849796,1.2973381623965088,0.9801193175992581,0.285450051676191,0.7180804119345261
0.0615,1.722861711243291,1.0,2954.4372069794395,0.49992839656696636,1.296904575936862,0.9803152907750308,0.2854131918722182,0.7189020178180872
0.062,1.7219840968629876,1.0,2958.6788266155922,0.5027334259662788,1.2964711892721354,0.9805069647147704,0.2853763320682455,0.7197220469756558
0.0625,1.721106482482684,1.0,2962.9008310576896,0.505522721299517,1.2960380002797536,0.9806944653763702,0.2853394722642727,0.7205405050713158
0.063,1.7202288681023805,1.0,2967.103415327084,0.5082963687397626,1.2956050068371423,0.9808779140768196,0.2853026124603,0.7213573977449397
0.0635,1.7193512537220772,1.0,2971.286775391127,0.5110544544600973,1.2951722068217264,0.9810574276978165,0.28526575265632725,0.7221727306122193
0.064,1.7184736393417737,1.0,2975.4511081542237,0.5137970646336029,1.2947395981109313,0.9812331188808084,0.2852288928523545,0.7229865092646898
0.0645,1.7175960249614701,1.0,2979.596611448712,0.5165242854333608,1.2943071785821822,0.9814050962120727,0.28519203304838175,0.723798739269756
0.065,1.7167184105811668,1.0,2983.7234840259075,0.5192362030324529,1.2938749461129044,0.98157346439842,0.285155173244409,0.7246094261707192
0.0655,1.7158407962008633,1.0,2987.831925547286,0.5219329036039608,1.2934428985805233,0.981738324434056,0.28511831344043626,0.7254185754868008
0.066,1.7149631818205597,1.0,2991.9221365756275,0.5246144733209663,1.2930110338624636,0.9818997737591098,0.28508145363646353,0.7262261927131702
0.0665,1.7140855674402564,1.0,2995.994318566363,0.527280998356551,1.292579349836151,0.9820579064102992,0.28504459383249076,0.7270322833209666
0.067,1.7132079530599529,1.0,3000.0486738593263,0.5299325648837966,1.2921478443790106,0.9822128131641777,0.28500773402851803,0.7278368527573258
0.0675,1.7123303386796493,1.0,3004.0854056697935,0.5325692590757847,1.2917165153684678,0.982364581673379,0.28497087422454526,0.7286399064454034
0.068,1.7114527242993458,1.0,3008.1047180806713,0.535191167105597,1.2912853606819477,0.9825132965962436,0.28493401442057253,0.7294414497843995
0.0685,1.7105751099190425,1.0,3012.1067234377247,0.5377983609225732,1.2908543789980822,0.9826590388593008,0.2848971546165998,0.7302414866633928
0.069,1.709697495538739,1.0,3016.091634803743,0.5403909083077955,1.2904235681298442,0.9828018863814559,0.28486029481262704,0.7310400225597251
0.0695,1.7088198811584354,1.0,3020.0600125324027,0.542968932921682,1.2899929228966278,0.98294191779856,0.28482343500865426,0.7318370684625972
0.07,1.707942266778132,1.0,3024.012051879718,0.5455325118454539,1.2895624412859072,0.9830792064093337,0.28478657520468154,0.7326326294532701
0.07050000000000001,1.7070646523978286,1.0,3027.947948890443,0.5480817221603321,1.2891321212851559,0.9832138231070056,0.2847497154007088,0.7334267105903888
0.07100000000000001,1.706187038017525,1.0,3031.8679003909538,0.5506166409475375,1.2887019608818469,0.9833458364745671,0.28471285559673604,0.7342193169100019
0.07150000000000001,1.7053094236372215,1.0,3035.7721039823596,0.5531373452882911,1.288271958063454,0.9834753128756472,0.2846759957927633,0.7350104534255809
