Time [s],Phi [rad],STIM [ ],Fsee [N],Gamma [ ],Lcerel [ ],q [ ],Lmtc [m],fisomrel [ ]
0.0,1.8,1.0,17.96705169275924,2.6309425215897196e-05,1.3793397581484796,0.005000183076911419,0.288653,0.5411395021934087
0.0005,1.79999375,1.0,18.281898357612786,0.005635371158947015,1.3793018152972885,0.01298585564139039,0.2886527375,0.5412312911740488
0.001,1.799975,1.0,21.635688424745616,0.011212970491192699,1.3789365348256106,0.035693618155177444,0.28865195,0.5421144852498686
0.0015,1.79994375,1.0,31.112276973029136,0.01675928390202711,1.3780425380553292,0.07071808830650443,0.2886506375,0.5442724471322864
0.002,1.7999,1.0,53.67670907430584,0.02227448687984305,1.3763620153017766,0.11485565636930622,0.2886488,0.5483151576466367
0.0025,1.79984375,1.0,97.27854574008106,0.027758753929036515,1.3739274792838323,0.1647246029927743,0.28864643749999996,0.5541397966723187
0.003,1.7997750000000001,1.0,161.1666017717908,0.03321225857756717,1.3712065443618555,0.21743489953405934,0.28864354999999997,0.5606049152516894
0.0035,1.79969375,1.0,237.91925743062197,0.038635173376671876,1.368577468894176,0.2707665009270394,0.2886401375,0.5668069178047279
0.004,1.7996,1.0,321.7180472142212,0.044027669911615434,1.3661494383580202,0.32306454039831656,0.2886362,0.5724954999684515
0.0045000000000000005,1.7994937500000001,1.0,409.5281605466066,0.049389918806883905,1.3639167023290397,0.3731756999506106,0.2886317375,0.5776933474679755
0.005,1.799375,1.0,499.6793534267136,0.054722089717309026,1.3618526938237459,0.4203795573950973,0.28862675,0.5824701147082221
0.0055,1.79924375,1.0,591.0587833933649,0.06002435137487975,1.359933592407466,0.46429599931227494,0.2886212375,0.5868871462265821
0.006,1.7991000000000001,1.0,682.7869296220045,0.06529687153356925,1.3581415287728669,0.504792355954648,0.2886152,0.5909905783425822
0.006500000000000001,1.79894375,1.0,774.1310382068338,0.07053981676510941,1.3564629900468923,0.5419037160074285,0.2886086375,0.5948154870115726
0.007,1.798775,1.0,864.5577583312196,0.07575335380662303,1.3548860025243488,0.5757703555540871,0.28860155,0.5983926186616324
0.0075,1.79859375,1.0,953.5186214507697,0.08093764681836108,1.3534025434675485,0.606594947893269,0.2885939375,0.6017431194855468
0.008,1.7984,1.0,1040.6147005846374,0.0860928597474715,1.3520048738708967,0.6346094386594016,0.2885858,0.604887017765096
0.0085,1.79819375,1.0,1125.569921973771,0.09121915616292928,1.350685622010642,0.6600546859573211,0.2885771375,0.6078430947544933
0.009000000000000001,1.797975,1.0,1208.1308188317164,0.0963166981556796,1.3494388838034694,0.6831681730950169,0.28856795,0.6106264875197238
0.0095,1.79774375,1.0,1288.1028930550124,0.10138564656480514,1.3482593359605721,0.7041757586836639,0.2885582375,0.6132507490953487
0.01,1.7975,1.0,1365.3884405619438,0.10642616279028251,1.3471415399179851,0.7232871765210442,0.288548,0.6157294364265624
0.0105,1.79724375,1.0,1439.8892359651397,0.11143840586225935,1.346081071170131,0.740694837215231,0.2885372375,0.6180736357708378
0.011,1.796975,1.0,1511.5370532075926,0.11642253377605342,1.3450739293847493,0.7565731577443929,0.28852595000000003,0.6202933139635491
0.0115,1.79669375,1.0,1580.3184062779037,0.12137870447155978,1.34411612495888,0.7710789296290774,0.2885141375,0.6223982542834328
0.012,1.7964,1.0,1646.2519804580616,0.12630707502627092,1.3432038829389983,0.784352501193264,0.28850180000000003,0.6243976235191147
0.0125,1.79609375,1.0,1709.3667810277962,0.13120780188984482,1.3423338201528585,0.7965191746172355,0.2884889375,0.6262996032511171
0.013000000000000001,1.7957750000000001,1.0,1769.683676911702,0.1360810392610218,1.3415030732398763,0.8076906463693216,0.28847555,0.6281111319123716
0.0135,1.79544375,1.0,1827.255012444736,0.14092694133854222,1.340708778839467,0.8179661838072632,0.2884616375,0.6298390561917067
0.014,1.7951000000000001,1.0,1882.138551376914,0.14574566119910512,1.3399483285539397,0.8274340659790664,0.2884472,0.6314895851829804
0.0145,1.79474375,1.0,1934.4365065847624,0.15053735309120878,1.3392189023085395,0.8361726501900147,0.2884322375,0.6330693122340229
0.015,1.794375,1.0,1984.2061305270577,0.1553021675153946,1.3385184113556596,0.8442518378361992,0.28841675,0.6345831797616085
0.0155,1.79399375,1.0,2031.5141535193343,0.16004025452149792,1.3378448585812464,0.8517338402938837,0.2884007375,0.6360358786040103
0.016,1.7936,1.0,2076.443545112319,0.16475176415935405,1.337196246871246,0.8586740567271497,0.2883842,0.6374320506886026
0.0165,1.7931937500000001,1.0,2119.081355758374,0.16943684562209688,1.3365706901100316,0.8651219144272159,0.2883671375,0.6387760540779881
0.017,1.792775,1.0,2159.524171905155,0.17409564844903105,1.335966338823428,0.8711215543610277,0.28834955,0.6400721274795331
0.0175,1.7923437500000001,1.0,2197.849313239866,0.17872831948966286,1.3353816585720362,0.8767125303280467,0.2883314375,0.641323798129688
0.018000000000000002,1.7919,1.0,2234.130950802084,0.18333500444550285,1.3348152444743195,0.8819302944365078,0.2883128,0.6425342859298522
0.0185,1.79144375,1.0,2268.4517721944962,0.18791584901806158,1.3342656916487408,0.886806641336288,0.2882936375,0.6437067837582556
0.019,1.790975,1.0,2300.8954838846626,0.19247099806306306,1.3337316622846136,0.8913701480067078,0.28827395,0.6448443162906525
0.0195,1.79049375,1.0,2331.5508037745694,0.19700059696118175,1.3332118374840838,0.8956465315602273,0.2882537375,0.6459498448994916
0.02,1.79,1.0,2360.4983514149408,0.2015047896660673,1.3327050388757165,0.8996590006581313,0.288233,0.6470260111821047
0.0205,1.78949375,1.0,2387.802131894876,0.20598371726724662,1.332210301888542,0.9034285511373313,0.2882117375,0.6480749850737365
0.021,1.788975,1.0,2413.530589925934,0.2104375208542466,1.3317266619515904,0.9069741643600309,0.28818995000000003,0.6490989213981355
0.021500000000000002,1.78844375,1.0,2437.7562414790523,0.21486634151659414,1.3312531544938921,0.91031302812079,0.2881676375,0.650099960579865
0.022,1.7879,1.0,2460.5502556709184,0.2192703193387996,1.3307888634857825,0.9134607402275696,0.2881448,0.651080126893445
0.0225,1.78734375,1.0,2481.983997727867,0.2236495946662583,1.330332902562586,0.9164314751628335,0.28812143749999997,0.6520413695299012
0.023,1.786775,1.0,2502.128124994509,0.22800430772823613,1.3298844202310947,0.9192381347314118,0.28809755,0.6529855525790642
0.0235,1.78619375,1.0,2521.035323260268,0.23233459453918268,1.3294427599775251,0.9218925080649929,0.28807313749999996,0.6539141195739502
0.024,1.7856,1.0,2538.76039254911,0.23664059111354757,1.3290072652880944,0.9244053513276538,0.2880482,0.6548285057004128
0.0245,1.78499375,1.0,2555.3600704257506,0.24092243346578052,1.3285772796490187,0.9267864924500719,0.2880227375,0.6557301380690388
0.025,1.784375,1.0,2570.892864857756,0.24518025761033105,1.3281521465465154,0.9290449239760025,0.28799675,0.6566204359595482
0.025500000000000002,1.78374375,1.0,2585.409588115233,0.24941419732348732,1.3277312964034504,0.9311888990097507,0.2879702375,0.6575006293294443
0.026000000000000002,1.7831000000000001,1.0,2598.968234894623,0.2536243892729453,1.327314105473622,0.9332259821178287,0.2879432,0.6583720547130187
0.0265,1.78244375,1.0,2611.6209465086345,0.2578109678571247,1.3269000165021183,0.9351631324706587,0.2879156375,0.6592359030960293
0.027,1.781775,1.0,2623.406474510891,0.26197406355146313,1.3264886066975043,0.9370067707580588,0.28788755,0.6600930793900585
0.0275,1.7810937500000001,1.0,2634.3644575456115,0.26611380683139774,1.326079453268345,0.9387628102941695,0.2878589375,0.6609444839165088
0.028,1.7804,1.0,2644.535345297274,0.2702303281723659,1.325672133423206,0.9404367038199954,0.2878298,0.6617910124731425
0.0285,1.77969375,1.0,2653.9603264043985,0.2743237580498051,1.325266224370652,0.9420334854221334,0.2878001375,0.6626335563892243
0.029,1.778975,1.0,2662.6812603353837,0.27839422693915244,1.324861303319248,0.943557808130397,0.28776995,0.6634730025692588
0.029500000000000002,1.7782437500000001,1.0,2670.732021815777,0.2824418614444333,1.3244570264247104,0.945013987091187,0.2877392375,0.6643100701646517
0.03,1.7775,1.0,2678.1576162348983,0.28646679469740677,1.3240529522803373,0.9464060089691666,0.287708,0.6651456763979511
0.0305,1.77674375,1.0,2684.990082307042,0.29046915379046595,1.3236487629541804,0.9477375850974759,0.2876762375,0.6659804790759845
0.031,1.775975,1.0,2691.2566838975836,0.29444906334233895,1.323244187775739,0.9490121660990486,0.28764395,0.6668150352972027
0.0315,1.7751937500000001,1.0,2696.9850131095845,0.2984066479717541,1.322838956074512,0.9502329586059375,0.2876111375,0.6676498993645388
0.032,1.7744,1.0,2702.202959533938,0.3023420322974396,1.3224327971799985,0.9514029455274032,0.2875778,0.6684856227764093
0.0325,1.77359375,1.0,2706.9386811241466,0.30625534093812373,1.3220254404216976,0.9525249043994709,0.2875439375,0.6693227542130475
0.033,1.772775,1.0,2711.2205766947595,0.31014669851253474,1.3216166151291084,0.9536014240181474,0.28750955,0.6701618395181599
0.0335,1.7719437500000002,1.0,2715.067820448912,0.3140162291232835,1.3212061366617587,0.9546349292444454,0.2874746375,0.6710032454426901
0.034,1.7711000000000001,1.0,2718.5180064416754,0.3178640554273685,1.3207936541305598,0.9556276651903628,0.2874392,0.6718476768799833
0.0345,1.7702437500000001,1.0,2721.6103382330166,0.32169029939550353,1.3203788037426347,0.956581728763862,0.2874032375,0.6726958613279284
0.035,1.7693768313640605,1.0,2724.4228696511136,0.3254950809971251,1.3199616968355998,0.9574991323535493,0.28736682691729054,0.6735475528000119
0.035500000000000004,1.7685085977590762,1.0,2727.407455318863,0.3292785202016697,1.3195424447470716,0.9583817594928894,0.28733036110588117,0.6744025063937011
0.036000000000000004,1.767640364154092,1.0,2730.617470603323,0.33304073697857395,1.319121158814667,0.9592313745939341,0.28729389529447186,0.6752604783060718
0.0365,1.766772130549108,1.0,2734.039968468863,0.33678185032736585,1.3186979602093283,0.9600496326194721,0.28725742948306254,0.6761212058622876
0.037,1.7659038969441236,1.0,2737.645087918825,0.34050197999341003,1.3182731235416085,0.960838101849877,0.2872209636716532,0.6769841161704975
0.0375,1.7650356633391395,1.0,2741.4136627612147,0.34420124311371597,1.3178468258801856,0.9615982446286347,0.28718449786024386,0.6778488369830706
0.038,1.7641674297341554,1.0,2745.329583761821,0.347879755912925,1.317419216240419,0.9623314322593867,0.28714803204883455,0.678715054723591
0.0385,1.763299196129171,1.0,2749.3767071308334,0.3515376346156786,1.3169904436376685,0.9630389543921688,0.2871115662374252,0.6795824574055935
0.039,1.762430962524187,1.0,2753.5388504346997,0.3551749954466182,1.3165606570872928,0.9637220247794954,0.28707510042601586,0.6804507346443287
0.0395,1.7615627289192028,1.0,2757.8081920001714,0.3587919483380484,1.3161299296175142,0.9643817784425794,0.28703863461460655,0.6813197308674284
0.04,1.7606944953142185,1.0,2762.159444599598,0.36238861835897246,1.315698491900304,0.9650193021947289,0.2870021688031972,0.6821889738899032
0.0405,1.7598262617092344,1.0,2766.5849277358907,0.3659651167255615,1.3152664149565503,0.9656356043341346,0.2869657029917878,0.683058315052437
0.041,1.7589580281042503,1.0,2771.0771002898864,0.36952155452550767,1.3148337683491031,0.9662316364391561,0.2869292371803785,0.6839276093976507
0.0415,1.758089794499266,1.0,2775.6283984766064,0.37305804284650307,1.3144006216408126,0.9668082972944031,0.2868927713689692,0.6847967127291792
0.042,1.7572215608942818,1.0,2780.231235020136,0.37657469277623995,1.3139670443945288,0.9673664363683232,0.2868563055575598,0.6856654816140433
0.0425,1.7563533272892977,1.0,2784.877998436189,0.38007161540241036,1.313533106173102,0.9679068570274664,0.2868198397461505,0.6865337733847143
0.043000000000000003,1.7554850936843134,1.0,2789.561052421526,0.38354892181270644,1.3130988765393818,0.9684303195098438,0.2867833739347412,0.6874014461408704
0.043500000000000004,1.7546168600793293,1.0,2794.272735350797,0.3870067230948204,1.312664425056219,0.9689375436776957,0.2867469081233318,0.688268358750842
0.044,1.7537486264743452,1.0,2799.0083490894917,0.3904451243681912,1.3122297944551715,0.9694292085505974,0.2867104423119225,0.6891344242808717
0.0445,1.7528803928693608,1.0,2803.7625183678556,0.39386423566630024,1.3117950333983623,0.9699059590848266,0.2866739765005132,0.6899995444774047
0.045,1.7520121592643767,1.0,2808.5254458595414,0.3972641770827008,1.311360230009549,0.9703684115408344,0.2866375106891038,0.690863543266584
0.0455,1.7511439256593926,1.0,2813.2948339334393,0.4006450527916805,1.3109254049675885,0.9708171434072056,0.2866010448776945,0.6917263792912663
0.046,1.7502756920544082,1.0,2818.068377129846,0.404006966967527,1.3104905789513368,0.9712527031345362,0.28656457906628513,0.6925880114236724
0.0465,1.7494074584494241,1.0,2822.8437621557077,0.40735002378452817,1.3100557726396505,0.9716756118749209,0.2865281132548758,0.6934483987653999
0.047,1.74853922484444,1.0,2827.6186678884487,0.4106743274169715,1.3096210067113858,0.9720863651012767,0.28649164744346645,0.6943075006474106
0.0475,1.7476709912394557,1.0,2832.3907653901483,0.4139799820391449,1.3091863018453995,0.9724854341158607,0.28645518163205713,0.6951652766299921
0.048,1.7468027576344716,1.0,2837.1577179305586,0.41726709182533595,1.3087516787205478,0.9728732674565392,0.2864187158206478,0.6960216865026903
0.0485,1.7459345240294875,1.0,2841.9171810197777,0.42053576094983236,1.3083171580156874,0.9732502922086286,0.28638225000923845,0.6968766902842145
0.049,1.7450662904245031,1.0,2846.6668024509995,0.4237860935869219,1.307882760409674,0.9736169152294656,0.28634578419782913,0.6977302482223189
0.0495,1.744198056819519,1.0,2851.404222351377,0.4270181939108922,1.307448506581365,0.9739735242922632,0.2863093183864198,0.698582320793649
0.05,1.743329823214535,1.0,2856.127073243735,0.43023216609603104,1.3070144172096163,0.9743204891552583,0.28627285257501045,0.6994328687035704
0.0505,1.7424615896095506,1.0,2860.8359990771237,0.43342809462759935,1.306580486169363,0.9746581585591456,0.28623638676360114,0.700281905293868
0.051000000000000004,1.7415933560045664,1.0,2865.527626922339,0.4366061022256823,1.3061467429919522,0.9749868720063305,0.2861999209521918,0.7011293742200879
0.051500000000000004,1.7407251223995823,1.0,2870.2003976977444,0.4397662949641686,1.3057132010359442,0.9753069507384159,0.28616345514078245,0.7019752509960343
0.052000000000000005,1.739856888794598,1.0,2874.8540429005834,0.4429087690196379,1.305279862188235,0.9756186998316198,0.2861269893293731,0.7028195336171308
0.0525,1.7389886551896139,1.0,2879.4882936109307,0.4460336205686701,1.3048467283357208,0.9759224108699291,0.28609052351796377,0.7036622200988751
0.053,1.7381204215846298,1.0,2884.102880499893,0.449140945787845,1.304413801365297,0.9762183626587275,0.28605405770655445,0.704503308476816
0.0535,1.7372521879796454,1.0,2888.69753383839,0.45223084085374243,1.3039810831638603,0.9765068218947568,0.2860175918951451,0.7053427968065251
0.054,1.7363839543746613,1.0,2893.271983506121,0.45530340194294217,1.3035485756183063,0.9767880437954297,0.28598112608373577,0.706180683163576
0.0545,1.7355157207696772,1.0,2897.825958999935,0.458358725232024,1.3031162806155308,0.9770622726902903,0.28594466027232646,0.7070169656435167
0.055,1.7346474871646929,1.0,2902.3591894428123,0.46139690689756774,1.3026842000424297,0.9773297425771964,0.2859081944609171,0.7078516423618444
0.0555,1.7337792535597087,1.0,2906.8714035930047,0.46441804311615315,1.3022523357858993,0.9775906776456055,0.2858717286495078,0.7086847114539796
0.056,1.7329110199547246,1.0,2911.3623298527045,0.4674222300643601,1.3018206897328355,0.9778452927691704,0.28583526283809846,0.7095161710752407
0.0565,1.7320427863497403,1.0,2915.8316962773356,0.47040956391876837,1.3013892637701339,0.978093793969681,0.2857987970266891,0.7103460194008184
0.057,1.7311745527447562,1.0,2920.2792305848616,0.4733801408559577,1.3009580597846908,0.9783363788542397,0.2857623312152798,0.7111742546257478
0.0575,1.730306319139772,1.0,2924.704660164587,0.47633405705250803,1.300527079663402,0.978573237027422,0.2857258654038704,0.7120008749648826
0.058,1.7294380855347877,1.0,2929.1082224311413,0.4792713766339955,1.3000963208151766,0.978804547467407,0.2856893995924611,0.7128258872231972
0.0585,1.7285698519298036,1.0,2933.4901276743544,0.4821922019329878,1.2996657808974144,0.9790304853510601,0.2856529337810517,0.7136492977013484
0.059000000000000004,1.7277016183248195,1.0,2937.84998436389,0.48509666850594696,1.2992354628501026,0.9792512219820285,0.2856164679696424,0.7144711025921073
0.059500000000000004,1.7268333847198352,1.0,2942.1880205951916,0.4879848628361839,1.2988053641825705,0.9794669175495693,0.2855800021582331,0.7152913084684993
0.06,1.725965151114851,1.0,2946.50446562558,0.4908568714070095,1.2983754824041471,0.9796777260412945,0.2855435363468237,0.7161099218752949
0.0605,1.725096917509867,1.0,2950.7995498622445,0.49371278070173474,1.2979458150241616,0.9798837955313636,0.2855070705354144,0.7169269493290436
0.061,1.7242286839048826,1.0,2955.073504849959,0.4965526772036704,1.2975163595519432,0.9800852684531398,0.2854706047240051,0.7177423973181085
0.0615,1.7233604502998985,1.0,2959.326563259651,0.49937664739612747,1.2970871134968207,0.9802822818572658,0.2854341389125957,0.7185562723027015
0.062,1.7224922166949144,1.0,2963.558958876837,0.5021847777624169,1.2966580743681233,0.980474967656038,0.2853976731011864,0.7193685807149139
0.0625,1.72162398308993,1.0,2967.77092658965,0.5049771547858494,1.2962292396751802,0.9806634528549085,0.28536120728977704,0.720179328958752
0.063,1.720755749484946,1.0,2971.9627023780968,0.507753864949736,1.2958006069273202,0.9808478597718837,0.2853247414783677,0.720988523410169
0.0635,1.7198875158799618,1.0,2976.1345233022535,0.5105149947373875,1.2953721736338728,0.9810283062455352,0.2852882756669584,0.721796170417096
0.064,1.7190192822749775,1.0,2980.286627491526,0.513260630632115,1.2949439373041667,0.9812049058322974,0.28525180985554904,0.7226022762994764
0.0645,1.7181510486699934,1.0,2984.419254133877,0.5159908591172293,1.2945158954475313,0.9813777679936763,0.28521534404413973,0.7234068473492947
0.065,1.7172828150650092,1.0,2988.5326434644007,0.5187057666760412,1.2940880455732955,0.9815469982739558,0.28517887823273036,0.72420988983061
0.0655,1.716414581460025,1.0,2992.6270367554043,0.5214054397918617,1.2936603851907882,0.9817126984689492,0.28514241242132105,0.7250114099795852
0.066,1.7155463478550408,1.0,2996.7026763051927,0.5240899649480018,1.2932329118093389,0.9818749667863076,0.28510594660991173,0.7258114140045169
0.0665,1.7146781142500567,1.0,3000.7598054280484,0.5267594286277721,1.2928056229382765,0.9820338979978684,0.28506948079850236,0.7266099080858669
0.067,1.7138098806450723,1.0,3004.7986684440766,0.5294139173144838,1.29237851608693,0.9821895835844866,0.28503301498709305,0.7274068983762907
0.0675,1.7129416470400882,1.0,3008.819510668812,0.5320535174914477,1.2919515887646287,0.9823421118737775,0.28499654917568373,0.728202391000667
0.068,1.712073413435104,1.0,3012.8225784031656,0.5346783156419747,1.2915248384807017,0.9824915681711593,0.28496008336427436,0.7289963920561251
0.0685,1.7112051798301198,1.0,3016.8080650024494,0.5372883920414651,1.2910982632106816,0.9826380345133743,0.284923617552865,0.7297889067465713
0.069,1.7103369462251357,1.0,3020.775834493829,0.5398837775290746,1.290671863782712,0.9827815872216998,0.2848871517414557,0.7305799349651931
0.0695,1.7094687126201515,1.0,3024.7268725651884,0.5424646307189872,1.2902456313393922,0.9829223075606254,0.28485068593004637,0.7313694945420843
0.07,1.7086004790151672,1.0,3028.661379301851,0.5450310280958629,1.2898195638271,0.9830602693218554,0.284814220118637,0.7321575906347881
0.07050000000000001,1.707732245410183,1.0,3032.579555590473,0.5475830461443615,1.2893936591922122,0.9831955438727752,0.2847777543072277,0.7329442283780031
0.07100000000000001,1.706864011805199,1.0,3036.4816031110986,0.5501207613491429,1.2889679153811056,0.98332820025254,0.28474128849581837,0.733729412883604
