Time [s],Phi [rad],STIM [ ],Fsee [N],Gamma [ ],Lcerel [ ],q [ ],Lmtc [m],fisomrel [ ]
0.0,1.8,1.0,17.96755539256799,1.0000016281479885e-05,1.379339701717484,0.0050000266518560555,0.288653,0.5411396387145737
0.0005,1.79999375,1.0,18.276850584599956,0.005619153232892787,1.3793023759662724,0.012940513758591624,0.2886527375,0.5412299349054228
0.001,1.799975,1.0,21.618448127245717,0.01119684353488146,1.3789382953146145,0.03560857578942435,0.28865195,0.5421102306889477
0.0015,1.79994375,1.0,31.06920849837997,0.01674324740518213,1.3780462060723833,0.07060170372098055,0.2886506375,0.5442636035531797
0.002,1.7999,1.0,53.58209841018543,0.022258540335079877,1.3763681504636676,0.11471783484342252,0.2886488,0.5483004314941267
0.0025,1.79984375,1.0,97.1182701327081,0.02774289683177054,1.3739351994255122,0.16457467223991,0.28864643749999996,0.554121385939421
0.003,1.7997750000000001,1.0,160.9573455103414,0.03319649042608104,1.3712143744987455,0.21728022601465888,0.28864354999999997,0.5605863780787792
0.0035,1.79969375,1.0,237.68242500336308,0.038619493672058545,1.3685847621569989,0.2706126613364665,0.2886401375,0.5667897739338922
0.004,1.7996,1.0,321.4658381581927,0.04401207815775326,1.3661561171125762,0.3229155815066235,0.2886362,0.5724799040211779
0.0045000000000000005,1.7994937500000001,1.0,409.2668274417823,0.04937441451040279,1.3639228358410755,0.3730342987166454,0.2886317375,0.5776791120962679
0.005,1.799375,1.0,499.41258616771256,0.05470667238752044,1.361858361854247,0.42024726584015953,0.28862675,0.5824570342989822
0.0055,1.79924375,1.0,590.7895174511901,0.060009020524376885,1.3599388526157,0.4641735184430977,0.2886212375,0.5868750713574409
0.006,1.7991000000000001,1.0,682.5172256661135,0.0652816266771184,1.3581464307918478,0.5046797977169655,0.2886152,0.590979381731697
0.006500000000000001,1.79894375,1.0,773.8804772247134,0.0705246576784037,1.3564672669432538,0.5418006101994401,0.2886086375,0.5948057640242572
0.007,1.798775,1.0,864.2849961296673,0.0757382794209938,1.3548904081624287,0.575676645992032,0.28860155,0.5983826473032678
0.0075,1.79859375,1.0,953.2425070055571,0.08092265686748784,1.3534067900871491,0.6065097936320868,0.2885939375,0.6017335482152351
0.008,1.7984,1.0,1040.34397179222,0.0860779536458161,1.3520088595753812,0.6345320685777336,0.2885858,0.6048780700906875
0.0085,1.79819375,1.0,1125.3140594383763,0.09120433386848294,1.3506892438778262,0.6599843338653745,0.2885771375,0.6078349943507607
0.009000000000000001,1.797975,1.0,1207.8998316832106,0.09630195947156112,1.3494420398178557,0.6831041049354604,0.28856795,0.6106194541069392
0.0095,1.79774375,1.0,1287.8918612832904,0.10137099097509258,1.3482621283612464,0.7041173986548048,0.2885582375,0.6132445470321899
0.01,1.7975,1.0,1365.1666451081549,0.10641158889911936,1.347144390473774,0.7232341562763699,0.288548,0.615723125518469
0.0105,1.79724375,1.0,1439.6589988601681,0.11142391319949994,1.3460839526494912,0.7406465960454793,0.2885372375,0.6180672758880891
0.011,1.796975,1.0,1511.3218839864744,0.11640812264420972,1.345076557676569,0.7565290691776219,0.28852595000000003,0.6202875297898263
0.0115,1.79669375,1.0,1580.1206286978788,0.12136437441089758,1.344118487643347,0.771038556420213,0.2885141375,0.6223930690754327
0.012,1.7964,1.0,1646.056696193883,0.12629282514031187,1.3432061686396517,0.7843155406864658,0.28850180000000003,0.624392620560239
0.0125,1.79609375,1.0,1709.1736634412491,0.13119363168096074,1.3423360383688925,0.7964852819258116,0.2884889375,0.6262947603121563
0.013000000000000001,1.7957750000000001,1.0,1769.5064750351412,0.13606694889808357,1.3415050736486207,0.8076594515540404,0.28847555,0.6281067751028385
0.0135,1.79544375,1.0,1827.0914632509696,0.14091293024793153,1.340710595801795,0.8179374287827711,0.2884616375,0.6298351081262303
0.014,1.7951000000000001,1.0,1881.9926036443685,0.1457317291867559,1.3399499261513743,0.8274074960875221,0.2884472,0.6314861215231988
0.0145,1.79474375,1.0,1934.2788106479302,0.1505234981300673,1.33922060501386,0.8361481648661178,0.2884322375,0.6330656286161697
0.015,1.794375,1.0,1984.0508992465266,0.1552883901029222,1.3385200662936245,0.8442291874241792,0.28841675,0.6345796068767859
0.0155,1.79399375,1.0,2031.371202719732,0.1600265548183789,1.337846364743228,0.8517128192295009,0.2884007375,0.6360326333857966
0.016,1.7936,1.0,2076.3114062082846,0.16473814163465034,1.3371976239694887,0.8586545192449128,0.2883842,0.6374290892516943
0.0165,1.7931937500000001,1.0,2118.957524431047,0.1694232999099496,1.3365719675792247,0.865103733695629,0.2883671375,0.6387733119893155
0.017,1.792775,1.0,2159.3907761266073,0.17408217773461615,1.335967702015765,0.8711046609876769,0.28834955,0.6400692066398156
0.0175,1.7923437500000001,1.0,2197.718374495883,0.17871492418591584,1.3353829849370584,0.8766967776413144,0.2883314375,0.641320961143842
0.018000000000000002,1.7919,1.0,2234.011159852428,0.18332168470371601,1.334816448020877,0.8819155606732362,0.2883128,0.6425317159906994
0.0185,1.79144375,1.0,2268.3433946784994,0.18790260436761796,1.334266772253766,0.8867928391714577,0.2882936375,0.6437044801245183
0.019,1.790975,1.0,2300.7968658248947,0.1924578282572229,1.3337326386222697,0.8913572039624102,0.28827395,0.6448422382596224
0.0195,1.79049375,1.0,2331.4517519477627,0.19698750034410012,1.3332128116479998,0.8956343985819948,0.2882537375,0.6459477747246003
0.02,1.79,1.0,2360.397130753307,0.20149176569671196,1.3327060282471233,0.8996476172550885,0.288233,0.647023911887833
0.0205,1.78949375,1.0,2387.704649104282,0.20597076643748558,1.3322112492606535,0.9034178455317017,0.2882117375,0.6480729778848087
0.021,1.788975,1.0,2413.439423392076,0.21042464314224293,1.3317275432044084,0.9069640784876103,0.28818995000000003,0.6490970570139265
0.021500000000000002,1.78844375,1.0,2437.6705605782518,0.2148535363868059,1.3312539785942055,0.9103035160569336,0.2881676375,0.6500982195966507
0.022,1.7879,1.0,2460.470822544306,0.21925758674699639,1.3307896239458623,0.9134517574392998,0.2881448,0.6510785226076371
0.0225,1.78734375,1.0,2481.9041462358837,0.22363693248956337,1.3303336637198875,0.9164229939925247,0.28812143749999997,0.6520397659865953
0.023,1.786775,1.0,2502.0498324781224,0.2279917157008014,1.3298851635176117,0.9192301150787684,0.28809755,0.6529839888104547
0.0235,1.78619375,1.0,2520.963795597635,0.23232207324244644,1.3294434364887808,0.9218849081377817,0.28807313749999996,0.6539126981966283
0.024,1.7856,1.0,2538.697766930736,0.23662814065079743,1.3290078555316125,0.9243981380607271,0.2880482,0.6548272672145714
0.0245,1.78499375,1.0,2555.3053674438993,0.24091005346215322,1.3285777935443246,0.9267796405830401,0.2880227375,0.6557290611911455
0.025,1.784375,1.0,2570.8419481502506,0.2451679472128127,1.3281526234251348,0.9290384152323606,0.28799675,0.6566194379438828
0.025500000000000002,1.78374375,1.0,2585.3644392455426,0.24940195743907478,1.327731718072261,0.9311827078477881,0.2879702375,0.6574997479891711
0.026000000000000002,1.7831000000000001,1.0,2598.9196561657104,0.25361221612623003,1.3273145579907988,0.9332200998685939,0.2879432,0.6583711100997705
0.0265,1.78244375,1.0,2611.570487672561,0.2577988615358352,1.3269004853928328,0.9351575370075911,0.2879156375,0.6592349255418697
0.027,1.781775,1.0,2623.3581027004325,0.261962025002594,1.3264890551835444,0.9370014386108804,0.28788755,0.6600921455527949
0.0275,1.7810937500000001,1.0,2634.3203077949775,0.2661018364755261,1.3260798617565526,0.9387577221708007,0.2878589375,0.6609436344286594
0.028,1.7804,1.0,2644.4957024920786,0.27021842590365075,1.3256724995054765,0.940431844219483,0.2878298,0.6617902521232635
0.0285,1.77969375,1.0,2653.9236102603895,0.27431192323598763,1.325266562823935,0.942028842286081,0.2878001375,0.6626328543007114
0.029,1.778975,1.0,2662.6440130908727,0.2783824584215561,1.3248616461055478,0.9435533725289272,0.28776995,0.6634722923775314
0.029500000000000002,1.7782437500000001,1.0,2670.6974897343034,0.28243016140937577,1.3244573437439335,0.9450097435355429,0.2877392375,0.664309413554308
0.03,1.7775,1.0,2678.1145172789647,0.2864551549666374,1.3240533477724332,0.9464019572600028,0.287708,0.6651448590480817
0.0305,1.77674375,1.0,2684.9447655960353,0.2904575770151987,1.3236491782678732,0.9477337076879763,0.2876762375,0.6659796218320486
0.031,1.775975,1.0,2691.2144208948557,0.2944375518248634,1.3232445746518133,0.9490084477978894,0.28764395,0.6668142377492612
0.0315,1.7751937500000001,1.0,2696.9489805602916,0.2983952030108747,1.3228392855662672,0.9502293873299834,0.2876111375,0.6676492209663973
0.032,1.7744,1.0,2702.1742282193622,0.3023306541884757,1.3224330596532476,0.9513995120540422,0.2875778,0.6684850830441494
0.0325,1.77359375,1.0,2706.916206801611,0.3062440289729095,1.3220256455547676,0.9525216021406837,0.2875439375,0.6693223329242193
0.033,1.772775,1.0,2711.2011929996847,0.3101354509794192,1.3216167919128405,0.953598248814351,0.28750955,0.6701614769122852
0.0335,1.7719437500000002,1.0,2715.055673131298,0.3140050438232479,1.3212062473694794,0.9546318694670721,0.2874746375,0.6710030186569413
0.034,1.7711000000000001,1.0,2718.5063204016997,0.31785293111963875,1.320793760566697,0.9556247213916366,0.2874392,0.6718474591246066
0.0345,1.7702437500000001,1.0,2721.5740712918887,0.3216792319488444,1.3203791338739934,0.9565789190124822,0.2874032375,0.6726951867925696
0.035,1.7693750000000001,1.0,2724.281952092372,0.3254840693373605,1.319962151864848,0.9574964392700264,0.28736675,0.6735466242793874
0.035500000000000004,1.76849375,1.0,2726.6587772562907,0.32926757109770943,1.319542547585491,0.9583791286961856,0.2873297375,0.6744022968194332
0.036000000000000004,1.7676,1.0,2728.719785645157,0.3330298538447584,1.3191201785484785,0.9592287277418445,0.2872922,0.6752624733520001
0.0365,1.76669375,1.0,2730.48029685198,0.3367710341933745,1.3186949022663672,0.960046868500521,0.2872541375,0.6761274211397661
0.037,1.765775,1.0,2731.9557023262187,0.3404912287584249,1.3182665762517138,0.960835082674369,0.28721555,0.676997405743023
0.0375,1.76484375,1.0,2733.161456949922,0.3441905541547769,1.3178350580170748,0.9615948088690565,0.2871764375,0.6778726909926107
0.038,1.7639,1.0,2734.1130710627326,0.34786912699729744,1.3174002050750064,0.9623273992808498,0.28713679999999997,0.6787535389615558
0.0385,1.76294375,1.0,2734.826102938439,0.35152706390085386,1.3169618749380658,0.9630341258326627,0.28709663750000003,0.6796402099354144
0.039,1.761975,1.0,2735.316151710262,0.3551644814803132,1.3165199251188089,0.9637161858099881,0.28705595,0.6805329623813254
0.0395,1.7609937500000001,1.0,2735.5988507474926,0.3587814963505427,1.3160742131297924,0.9643747070424386,0.2870147375,0.6814320529157607
0.04,1.76,1.0,2735.684318967603,0.3623782196308691,1.3156246468059285,0.9650107561616198,0.286973,0.682337634976508
0.0405,1.7589937500000001,1.0,2735.5870342021594,0.3659547690328174,1.3151710946115918,0.9656253370332099,0.2869307375,0.6832499398001628
0.041,1.757975,1.0,2735.3231185925165,0.36951126259775574,1.3147134102469804,0.9662193959785633,0.28688795,0.6841692264372315
0.0415,1.75694375,1.0,2734.901092554266,0.3730478100097173,1.3142515165601696,0.966793831280426,0.2868446375,0.6850956133279129
0.042,1.7559,1.0,2734.329488098262,0.37656452095273524,1.3137853363992347,0.9673494919404169,0.28680079999999997,0.6860292176684284
0.0425,1.75484375,1.0,2733.616846440531,0.38006150511084263,1.313314792612251,0.9678871808835275,0.2867564375,0.6869701553901215
0.043000000000000003,1.753775,1.0,2732.7717157438597,0.38353887216807264,1.312839808047294,0.9684076579228008,0.28671155,0.6879185411381767
0.043500000000000004,1.75269375,1.0,2731.802648992081,0.3869967318084584,1.312360305552439,0.9689116425043919,0.28666613750000003,0.6888744882499582
0.044,1.7516,1.0,2730.7182019954116,0.3904351937160331,1.3118762079757613,0.9693998162513123,0.2866202,0.6898381087329709
0.0445,1.75049375,1.0,2729.5269315284922,0.39385436757482983,1.3113874381653363,0.9698728253224825,0.2865737375,0.690809513242439
0.045,1.7493750000000001,1.0,2728.2373936001327,0.39725436306888184,1.3108939189692395,0.9703312826021998,0.28652675,0.6917888110585075
0.0455,1.74824375,1.0,2726.8532330440808,0.40063527795136766,1.3103956178764098,0.9707757714238394,0.2864792375,0.6927760216936282
0.046,1.7471,1.0,2725.385297413882,0.4039972303974432,1.3098924368695724,0.9712068436682817,0.2864312,0.693771293274994
0.0465,1.7459437500000001,1.0,2723.8424547414966,0.4073403342564825,1.3093842958762878,0.9716250243409114,0.28638263750000004,0.6947747368148394
0.047,1.744775,1.0,2722.2289425419845,0.41066469176369297,1.3088711569099605,0.9720308139746997,0.28633355,0.6957863789193321
0.0475,1.74359375,1.0,2720.5489962822585,0.413970405154282,1.3083529819839947,0.9724246886087108,0.28628393750000003,0.6968062452218693
0.048,1.7424,1.0,2718.8068488511844,0.4172575766634569,1.307829733111795,0.9728071012123406,0.2862338,0.6978343603709218
0.0485,1.74119375,1.0,2717.0067300633164,0.42052630852642503,1.3073013723067652,0.9731784830139558,0.2861831375,0.6988707480177898
0.049,1.739975,1.0,2715.1528661930183,0.4237767029783937,1.3067678615823104,0.9735392447411773,0.28613195,0.6999154308042617
0.0495,1.73874375,1.0,2713.249479542051,0.42700886225457024,1.3062291629518343,0.9738897777794359,0.2860802375,0.7009684303501879
0.05,1.7375,1.0,2711.300788038074,0.430222888590162,1.3056852384287418,0.9742304552548838,0.286028,0.7020297672409543
0.0505,1.73624375,1.0,2709.3110048655667,0.4334188842203764,1.3051360500264368,0.9745616330472369,0.2859752375,0.703099461014872
0.051000000000000004,1.734975,1.0,2707.284338128967,0.43659695138042065,1.3045815597583241,0.974883650737667,0.28592195,0.7041775301504669
0.051500000000000004,1.73369375,1.0,2705.2249905471226,0.43975719230550214,1.3040217296378078,0.9751968324964541,0.2858681375,0.7052639920536852
0.052000000000000005,1.7324,1.0,2703.137159180448,0.4428997092308283,1.3034565216782925,0.9755014879147192,0.2858138,0.706358863045
0.0525,1.73109375,1.0,2701.023826909962,0.4460245750015323,1.302885908933731,0.9757979103824166,0.28575893750000003,0.7074621370197309
0.053,1.729775,1.0,2698.890948460134,0.4491319274978035,1.3023098372539998,0.976086385451367,0.28570355000000003,0.7085738593732784
0.0535,1.72844375,1.0,2696.74016484495,0.45222186157052796,1.3017282918533737,0.9763671841181236,0.2856476375,0.7096939983904508
0.054,1.7271,1.0,2694.573054718157,0.45529447116023275,1.3011412584949262,0.9766405655788792,0.2855912,0.7108225205104975
0.0545,1.7257437500000001,1.0,2692.3911944054953,0.4583498502074449,1.3005487229417307,0.9769067778974576,0.2855342375,0.7119593913842308
0.055,1.724375,1.0,2690.1961578574533,0.4613880926526914,1.2999506709568607,0.9771660585744263,0.28547675,0.7131045758690342
0.0555,1.72299375,1.0,2687.9895166063206,0.4644092924364992,1.2993470883033895,0.9774186350825249,0.2854187375,0.7142580380238608
0.056,1.7216,1.0,2685.772839727672,0.46741354349939546,1.2987379607443907,0.9776647253706654,0.2853602,0.7154197411042182
0.0565,1.72019375,1.0,2683.5476938067986,0.47040093978190717,1.2981232740429376,0.9779045383385908,0.28530113749999997,0.7165896475571414
0.057,1.718775,1.0,2681.3156429091136,0.47337157522456125,1.2975030139621035,0.9781382742841265,0.28524155,0.7177677190161493
0.0575,1.71734375,1.0,2679.0782485550526,0.47632554376788483,1.296877166264962,0.9783661253248142,0.2851814375,0.7189539162961929
0.058,1.7159,1.0,2676.8370696999555,0.47926293935240494,1.2962457167145867,0.9785882757955933,0.2851208,0.720148199388587
0.0585,1.71444375,1.0,2674.593662718115,0.4821838559186485,1.2956086510740508,0.9788049026240658,0.2850596375,0.7213505274559315
0.059000000000000004,1.7129750000000001,1.0,2672.34958139119,0.4850883874071426,1.2949659551064276,0.9790161756847784,0.28499795,0.7225608588270183
0.059500000000000004,1.71149375,1.0,2670.1063769015077,0.4879766277584143,1.2943176145747908,0.9792222581338521,0.2849357375,0.7237791509917249
0.06,1.71,1.0,2667.8655978292995,0.4908486709129905,1.2936636152422136,0.9794233067251908,0.284873,0.7250053605958964
0.0605,1.7084937500000001,1.0,2665.6284300220195,0.4937045496517712,1.2930039461842298,0.9796194673610755,0.2848097375,0.7262394372463935
0.061,1.7069750000000001,1.0,2663.397804845641,0.4965444315844999,1.292338580396271,0.9798108902518992,0.28474595,0.7274813597318016
0.0615,1.7054437500000001,1.0,2661.1741106841373,0.49936840512755504,1.291667514238242,0.979997714766205,0.2846816375,0.7287310623025665
0.062,1.7039,1.0,2658.9576647952304,0.5021765546546894,1.2909907447191762,0.9801800747033212,0.2846168,0.7299884773207246
0.0625,1.70234375,1.0,2656.748783916537,0.5049689645396557,1.2903082688481071,0.980358098826663,0.2845514375,0.7312535364745381
0.063,1.7007750000000001,1.0,2654.547784270464,0.5077457191562068,1.2896200836340683,0.9805319110891795,0.28448555,0.7325261707774084
0.0635,1.69919375,1.0,2652.3549815679135,0.5105069028780954,1.288926186086093,0.9807016308470813,0.28441913750000003,0.7338063105667869
0.064,1.6976,1.0,2650.170691012477,0.5132526000790745,1.2882265732132148,0.9808673730625396,0.2843522,0.7350938855030846
0.0645,1.69599375,1.0,2647.995227305505,0.5159828951328967,1.287521242024467,0.981029248496002,0.2842847375,0.7363888245685837
0.065,1.694375,1.0,2645.8289046504383,0.5186978724133149,1.2868101895288833,0.9811873638887267,0.28421675,0.7376910560663459
0.0655,1.69274375,1.0,2643.6720367578264,0.5213976162940819,1.2860934127354968,0.9813418221361028,0.2841482375,0.739000507619122
0.066,1.6911,1.0,2641.524936850634,0.5240822111489504,1.2853709086533414,0.9814927224522807,0.2840792,0.7403171061682599
0.0665,1.6894437500000001,1.0,2639.3879176695887,0.5267517413516732,1.28464267429145,0.9816401605266096,0.2840096375,0.7416407779726131
0.067,1.687775,1.0,2637.2612914783103,0.5294062912760034,1.2839087066588566,0.9817842286723429,0.28393955,0.7429714486074468
0.0675,1.68609375,1.0,2635.1453700696948,0.5320459452956933,1.2831690027645941,0.9819250159680476,0.2838689375,0.744309042963346
0.068,1.6844000000000001,1.0,2633.040464771408,0.5346707877844961,1.2824235596176965,0.9820626083921186,0.2837978,0.7456534852451193
0.0685,1.68269375,1.0,2630.946886452122,0.5372809031161644,1.281672374227197,0.9821970889507879,0.2837261375,0.7470046989707078
0.069,1.680975,1.0,2628.8649455279497,0.539876375664451,1.2809154436021288,0.9823285377999771,0.28365395,0.7483626069700866
0.0695,1.67924375,1.0,2626.7949519688877,0.5424572898031087,1.2801527647515256,0.9824570323613359,0.28358123749999997,0.749727131384172
0.07,1.6775,1.0,2624.7372153055812,0.5450237299058904,1.279384334684421,0.9825826474327776,0.283508,0.7510981936637229
0.07050000000000001,1.67574375,1.0,2622.692044636324,0.5475757803465489,1.2786101504098482,0.9827054552938091,0.2834342375,0.7524757145682455
0.07100000000000001,1.673975,1.0,2620.655851802074,0.5501135218165929,1.2778302450856411,0.9828255272408084,0.28335995,0.7538595501136881
0.07150000000000001,1.67219375,1.0,2618.633380007388,0.552637029477478,1.2770445746061716,0.9829429283567203,0.2832851375,0.7552496928612418
0.07200000000000001,1.6704,1.0,2616.6252541962367,0.555146382345079,1.2762531330306668,0.9830577235265016,0.2832098,0.7566460666158824
0.0725,1.66859375,1.0,2614.6304676857603,0.5576416594344572,1.2754559295633343,0.983169976189814,0.2831339375,0.7580485678201512
0.073,1.6667750000000001,1.0,2612.648015400765,0.5601229397606745,1.2746529734083825,0.9832797477243846,0.28305755,0.7594570924679029
0.0735,1.66494375,1.0,2610.676417585827,0.5625903018886522,1.273844278196507,0.9833870976966296,0.2829806375,0.7608715283770221
0.074,1.6631,1.0,2608.7153553485323,0.565043824575179,1.2730298467862782,0.9834920832966666,0.2829032,0.7622917817725174
0.0745,1.6612437500000001,1.0,2606.765526796584,0.5674835851483627,1.2722096725818215,0.9835947593900364,0.2828252375,0.7637177747222499
0.075,1.659375,1.0,2604.827290122998,0.5699096603479505,1.2713837521407307,0.9836951792016696,0.28274675,0.7651494230676608
0.0755,1.65749375,1.0,2602.901003036686,0.5723221269136893,1.2705520820205995,0.9837933942741705,0.2826677375,0.7665866419461695
