Time [s],Phi [rad],STIM [ ],Fsee [N],Gamma [ ],Lcerel [ ],q [ ],Lmtc [m],fisomrel [ ]
0.0,1.8,1.0,17.96695835916812,1.0345941510443122e-05,1.3793397686050077,0.005000028520005689,0.288653,0.5411394768963622
0.0005,1.79999375,1.0,18.276425268865168,0.00561949721775513,1.379302423210709,0.01294147535049776,0.2886527375,0.5412298206201667
0.001,1.799975,1.0,21.61831313058003,0.011197185590260506,1.3789383091025373,0.03561038231131822,0.28865195,0.5421101973676974
0.0015,1.79994375,1.0,31.069624416017493,0.016743587541901323,1.3780461706377316,0.07060417803642084,0.2886506375,0.5442636889864385
0.002,1.7999,1.0,53.58359714545073,0.022258878563900516,1.3763680532338638,0.11472076570650633,0.2886488,0.5483006648754831
0.0025,1.79984375,1.0,97.12117070100882,0.027743233163395255,1.3739350596546118,0.16457786021717852,0.28864643749999996,0.5541217192637178
0.003,1.7997750000000001,1.0,160.96132318728746,0.03319682487115118,1.371214225611052,0.21728351393301532,0.28864354999999997,0.560586730561183
0.0035,1.79969375,1.0,237.68703626811174,0.03861982624115589,1.3685846201182645,0.27061593068620565,0.2886401375,0.5667901078197533
0.004,1.7996,1.0,321.4708217071847,0.044012408861400704,1.3661559851177183,0.32291874649029806,0.2886362,0.5724802122527847
0.0045000000000000005,1.7994937500000001,1.0,409.2720446834299,0.04937474335906524,1.36392271337278,0.3730373026440271,0.2886317375,0.5776793963373514
0.005,1.799375,1.0,499.4179557528359,0.054706999391609445,1.3618582477512111,0.4202500758477668,0.28862675,0.5824572976225227
0.0055,1.79924375,1.0,590.7949686611438,0.06000934569421917,1.3599387461124415,0.4641761197960696,0.2886212375,0.5868753158386588
0.006,1.7991000000000001,1.0,682.522716090609,0.06528195002301007,1.3581463309906807,0.5046821880555555,0.2886152,0.5909796096872251
0.006500000000000001,1.79894375,1.0,773.8857000073702,0.07052497921101127,1.3564671777870325,0.5418027983976234,0.2886086375,0.5948059667109316
0.007,1.798775,1.0,864.2905597413529,0.07573859914946342,1.3548903182923748,0.5756786360799194,0.28860155,0.5983828507089824
0.0075,1.79859375,1.0,953.2469321898444,0.08092297479467188,1.3534067220232953,0.6065116134819701,0.2885939375,0.6017337016222875
0.008,1.7984,1.0,1040.3637271273421,0.08607827021095485,1.3520085687172294,0.6345335883899305,0.2885858,0.6048787230537231
0.0085,1.79819375,1.0,1125.3263817385446,0.09120464848338887,1.3506890694398253,0.6599857707158883,0.2885771375,0.6078353844879765
0.009000000000000001,1.797975,1.0,1207.8806501160627,0.09630227139123944,1.3494423019122475,0.6831056453443811,0.28856795,0.6106188700072376
0.0095,1.79774375,1.0,1287.8621026965423,0.10137130067965582,1.3482625221492575,0.7041188765847342,0.2885582375,0.6132436724050956
0.01,1.7975,1.0,1365.1739668251935,0.10641189798678076,1.3471442963700302,0.7232352634156448,0.288548,0.6157233338576424
0.0105,1.79724375,1.0,1439.689344864881,0.11142422134779752,1.3460835728478893,0.7406474630196779,0.2885372375,0.6180681141735961
0.011,1.796975,1.0,1511.3429901802574,0.11640842879788935,1.3450762998561576,0.7565299092393093,0.28852595000000003,0.6202880971861708
0.0115,1.79669375,1.0,1580.1258164110718,0.12136467837223953,1.3441184256681582,0.771039407452312,0.2885141375,0.6223932050882279
0.012,1.7964,1.0,1646.0606590261891,0.12629312753609015,1.343206122255415,0.7843163260482899,0.28850180000000003,0.6243927220867382
0.0125,1.79609375,1.0,1709.1769924853963,0.1311939324867223,1.3423360001292675,0.7964860052194195,0.2884889375,0.6262948437994076
0.013000000000000001,1.7957750000000001,1.0,1769.5007688631204,0.13606724766060094,1.3415051380665128,0.8076601563117745,0.28847555,0.6281066348028443
0.0135,1.79544375,1.0,1827.0803466931181,0.1409132271685549,1.3407107193049999,0.81793810113129,0.2884616375,0.6298348397661659
0.014,1.7951000000000001,1.0,1881.9820847538494,0.14573202432740281,1.339950041297403,0.8274081145267671,0.2884472,0.6314858718810394
0.0145,1.79474375,1.0,1934.2853424065506,0.15052379262099455,1.3392205344865042,0.8361486730823063,0.2884322375,0.6330657811948035
0.015,1.794375,1.0,1984.0512609582458,0.15528868270448618,1.3385200624373006,0.844229679265803,0.28841675,0.6345796152023154
0.0155,1.79399375,1.0,2031.3578569093006,0.16002684510274795,1.337846505360412,0.8517133216354494,0.2884007375,0.6360323304073887
0.016,1.7936,1.0,2076.2886543842233,0.16473842941465955,1.3371978610842237,0.858655016492172,0.2883842,0.637428579337451
0.0165,1.7931937500000001,1.0,2118.941916946763,0.16942358632001345,1.3365721285918604,0.8651041755399443,0.2883671375,0.6387729663748221
0.017,1.792775,1.0,2159.400806704579,0.17408246423998797,1.335967599510255,0.8711049987223871,0.28834955,0.6400694262733322
0.0175,1.7923437500000001,1.0,2197.7339922183696,0.17871520925993659,1.3353828267327565,0.8766970761306279,0.2883314375,0.6413212995304394
0.018000000000000002,1.7919,1.0,2234.019606813735,0.18332196746521276,1.334816363152714,0.8819158573012513,0.2883128,0.6425318972104274
0.0185,1.79144375,1.0,2268.3444568017444,0.18790288494116997,1.3342667616634762,0.8867931348165327,0.2882936375,0.6437045027009336
0.019,1.790975,1.0,2300.79224903344,0.19245810648106482,1.3337326843299007,0.891357494277674,0.28827395,0.6448421409756342
0.0195,1.79049375,1.0,2331.4553094063813,0.19698777807972973,1.3332127766604238,0.8956346523915383,0.2882537375,0.645947849076054
0.02,1.79,1.0,2360.407605856154,0.20149204276038168,1.3327059258582763,0.8996478401751261,0.288233,0.6470241291415407
0.0205,1.78949375,1.0,2387.7144677936103,0.20597104175608308,1.3322111538382946,0.9034180559014782,0.2882117375,0.6480731800555771
0.021,1.788975,1.0,2413.445701687507,0.21042491629989635,1.331727482515316,0.9069642831406461,0.28818995000000003,0.649097185408325
0.021500000000000002,1.78844375,1.0,2437.6752173148416,0.21485380762488385,1.3312539338041773,0.9103037116963804,0.2881676375,0.6500983142195718
0.022,1.7879,1.0,2460.473474687427,0.21925785547983725,1.330789598555137,0.9134519451037225,0.2881448,0.6510785761726126
0.0225,1.78734375,1.0,2481.914756546554,0.22363720122461803,1.3303335625799892,0.9164231569024645,0.28812143749999997,0.6520399790599883
0.023,1.786775,1.0,2502.063264523466,0.22799198393743866,1.3298850359968302,0.9192302641314649,0.28809755,0.6529842570962057
0.0235,1.78619375,1.0,2520.9727371522386,0.23232233977609087,1.3294433519187043,0.9218850566390316,0.28807313749999996,0.6539128758819156
0.024,1.7856,1.0,2538.699047879716,0.2366284048983664,1.3290078434586554,0.9243982912485605,0.2880482,0.6548272925468268
0.0245,1.78499375,1.0,2555.3000253537234,0.24091031546205696,1.3285778437297275,0.9267797965005464,0.2880227375,0.6557289560265394
0.025,1.784375,1.0,2570.835283572893,0.24516820762495428,1.328152685844965,0.9290385655054139,0.28799675,0.6566193073110194
0.025500000000000002,1.78374375,1.0,2585.353748187225,0.2494022143601475,1.3277318179221624,0.9311828561474701,0.2879702375,0.6574995392902888
0.026000000000000002,1.7831000000000001,1.0,2598.918417871022,0.2536124741067843,1.3273145695257302,0.9332202280031092,0.2879432,0.658371086021001
0.0265,1.78244375,1.0,2611.5754749945386,0.25779911982896286,1.326900439047746,0.9351576505924906,0.2879156375,0.6592350221632366
0.027,1.781775,1.0,2623.3640191019576,0.2619622820754686,1.3264890003285739,0.9370015454398163,0.28788755,0.6600922597718384
0.0275,1.7810937500000001,1.0,2634.3240417549864,0.2661020913950869,1.3260798272085774,0.9387578266172325,0.2878589375,0.6609437062743122
0.028,1.7804,1.0,2644.496349773593,0.2702186783366029,1.3256724935281206,0.9404319475557834,0.2878298,0.6617902645381897
0.0285,1.77969375,1.0,2653.9224925041053,0.27431217344880204,1.325266573127567,0.9420289429714773,0.2878001375,0.6626328329268147
0.029,1.778975,1.0,2662.6446931133746,0.27838270728046954,1.324861639847281,0.9435534664693203,0.28776995,0.6634723053435443
0.029500000000000002,1.7782437500000001,1.0,2670.696452499932,0.2824304059930888,1.3244573532752297,0.945009834466209,0.2877392375,0.6643093938317373
0.03,1.7775,1.0,2678.1235510215615,0.286455403442338,1.324053264875178,0.9464020337907958,0.287708,0.6651450303690618
0.0305,1.77674375,1.0,2684.9574567233767,0.29045782656443975,1.3236490619572485,0.9477337772363671,0.2876762375,0.6659798619075036
0.031,1.775975,1.0,2691.225254122813,0.29443779989766966,1.323244475484015,0.9490085163256906,0.28764395,0.6668144421845157
0.0315,1.7751937500000001,1.0,2696.9543552941204,0.2983954479803034,1.3228392364180508,0.9502294585159109,0.2876111375,0.6676493221588327
0.032,1.7744,1.0,2702.172469285656,0.30233089535061647,1.3224330757219291,0.9513995874736518,0.2875778,0.668485050001584
0.0325,1.77359375,1.0,2706.9075731415264,0.30624426654688464,1.3220257243582234,0.9525216814308668,0.2875439375,0.6693221710827855
0.033,1.772775,1.0,2711.1878845284796,0.3101356861073834,1.3216169132895073,0.9535983298237093,0.28750955,0.6701612279532193
0.0335,1.7719437500000002,1.0,2715.0413318607802,0.3140052779556878,1.3212063780726762,0.9546319487506469,0.2874746375,0.6710027509101819
0.034,1.7711000000000001,1.0,2718.4885896142105,0.31785315744991166,1.3207939220586689,0.9556247996428571,0.2874392,0.6718471287315584
0.0345,1.7702437500000001,1.0,2721.5633601254067,0.3216794609658883,1.3203792313762113,0.9565789886216195,0.2874032375,0.6726949875726661
0.035,1.7693750000000001,1.0,2724.2825162888134,0.3254843062491171,1.319962146731607,0.9574964977148973,0.28736675,0.6735466347541506
0.035500000000000004,1.76849375,1.0,2726.6630386184856,0.3292678110450978,1.3195425088311585,0.9583791824982411,0.2873297375,0.6744023757968398
0.036000000000000004,1.7676,1.0,2728.7220040465986,0.33303009309932985,1.3191201583811696,0.9592287816129195,0.2872922,0.6752625143966111
0.0365,1.76669375,1.0,2730.476575285006,0.33677127015731273,1.3186949360879432,0.9600469254638183,0.2872541375,0.6761273523976461
0.037,1.765775,1.0,2731.9439907491574,0.3404914599645462,1.3182666826577825,0.9608351441762042,0.28721555,0.6769971897640638
0.0375,1.76484375,1.0,2733.1415550446386,0.3441907802665297,1.3178352387969905,0.9615948748820675,0.2871764375,0.6778723245499363
0.038,1.7639,1.0,2734.0866300160774,0.34786934880876286,1.3174004452118704,0.9623274683993244,0.28713679999999997,0.6787530528676865
0.0385,1.76294375,1.0,2734.7966263594203,0.35152728333674516,1.3169621426087255,0.9630341953605869,0.28709663750000003,0.679639668854866
0.039,1.761975,1.0,2735.284301859906,0.3551646965088382,1.3165202143148034,0.9637162547977851,0.28705595,0.6805323786036701
0.0395,1.7609937500000001,1.0,2735.5551621015024,0.358781696412618,1.3160746098017422,0.9643747813571006,0.2870147375,0.6814312533121061
0.04,1.76,1.0,2735.6411270288186,0.3623784198682218,1.315625038961871,0.9650108284640498,0.286973,0.6823368456005018
0.0405,1.7589937500000001,1.0,2735.550733534835,0.36595497654459275,1.3151714242047285,0.9656254035655554,0.2869307375,0.6832492773111067
0.041,1.757975,1.0,2735.292535566055,0.36951147611067425,1.314713687939854,0.9662194576125919,0.28688795,0.6841686690793884
0.0415,1.75694375,1.0,2734.8751014350223,0.3730480282354095,1.3142517525767856,0.9667938888131596,0.2868446375,0.6850951403138352
0.042,1.7559,1.0,2734.307011265563,0.3765647425877418,1.313785540525063,0.9673495460985572,0.28680079999999997,0.6860288091753639
0.0425,1.75484375,1.0,2733.5968545723254,0.3800617288366145,1.313314974194224,0.9678872323275741,0.2867564375,0.6869697925563544
0.043000000000000003,1.753775,1.0,2732.7532279725833,0.38353909665097075,1.3128399759938085,0.968407707250891,0.28671155,0.6879182060592899
0.043500000000000004,1.75269375,1.0,2731.7847330331933,0.38699695569975384,1.3123604683333547,0.9689116902558763,0.28666613750000003,0.6888741639750233
0.044,1.7516,1.0,2730.699974249226,0.3904354156519071,1.311876373622402,0.9693998629100911,0.2866202,0.6898377792606504
0.0445,1.75049375,1.0,2729.50755715778,0.39385458617637387,1.3113876142704886,0.9698728713201163,0.2865737375,0.6908091635170072
0.045,1.7493750000000001,1.0,2728.216086583899,0.3972545769420973,1.3108941126871536,0.9703313283208096,0.28652675,0.6917884269657762
0.0455,1.74824375,1.0,2726.8341650205584,0.40063549761802075,1.310395791281936,0.9707758155087175,0.2864792375,0.6927756784262145
0.046,1.7471,1.0,2725.368532612499,0.40399745094998496,1.3098925893705067,0.9712068854371597,0.2864312,0.6937709918789622
0.0465,1.7459437500000001,1.0,2723.824299179779,0.40734054368262806,1.309384461075054,0.971625064711666,0.28638263750000004,0.6947744108587321
0.047,1.744775,1.0,2722.20922737457,0.4106648933409396,1.3088713363528734,0.9720308535608888,0.28633355,0.6957860254451216
0.0475,1.74359375,1.0,2720.527678062395,0.41397060166135263,1.3083531760774492,0.9724247278418547,0.28628393750000003,0.696805863529814
0.048,1.7424,1.0,2718.784009377845,0.4172577703803003,1.307829941122266,0.9728071403541492,0.2862338,0.6978339520046628
0.0485,1.74119375,1.0,2716.982576213248,0.4205265012342158,1.307301592360808,0.9731785221675916,0.2861831375,0.698870316749081
0.049,1.739975,1.0,2715.12772974029,0.42377689595953216,1.3067680906665597,0.97353928386163,0.28613195,0.6999149826173259
0.0495,1.73874375,1.0,2713.2238169662337,0.42700905629268254,1.3062293969130054,0.9738898166830854,0.2860802375,0.700967973425692
0.05,1.7375,1.0,2711.275180324051,0.4302230839701001,1.3056854719736293,0.9742304936283137,0.286028,0.702029311939603
0.0505,1.73624375,1.0,2709.2861572959673,0.4334190807282179,1.3051362767219161,0.9745616704553598,0.2859752375,0.7030990198606066
0.051000000000000004,1.734975,1.0,2707.261080071709,0.4365971483034691,1.30458177203135,0.9748836866312183,0.28592195,0.7041771178132741
0.051500000000000004,1.73369375,1.0,2705.204275239963,0.4397573884322868,1.3040219187754152,0.9751968662189022,0.2858681375,0.7052636253319989
0.052000000000000005,1.7324,1.0,2703.1200635142104,0.44289990285110414,1.3034566778275964,0.975501518708637,0.2858138,0.7063585608476988
0.0525,1.73109375,1.0,2701.0105322683903,0.4460247776340206,1.3028860304124876,0.9757979394316718,0.28575893750000003,0.7074619023627731
0.053,1.729775,1.0,2698.8770199632454,0.44913211034931994,1.3023099645748477,0.9760864123370363,0.28570355000000003,0.708573613899089
0.0535,1.72844375,1.0,2696.725574470737,0.4522220312037275,1.3017284252776467,0.9763672096047108,0.2856476375,0.7096937416437232
0.054,1.7271,1.0,2694.5578046259006,0.4552946332535645,1.3011413980081845,0.9766405902855042,0.2855912,0.7108222525691206
0.0545,1.7257437500000001,1.0,2692.3753168867493,0.45835000955515226,1.3005488682537614,0.9769068023073202,0.2855342375,0.7119591128551761
0.055,1.724375,1.0,2690.1797152859262,0.4613882531648121,1.2999508215016773,0.9771660830435732,0.28547675,0.7131042878841485
0.0555,1.72299375,1.0,2687.9726013873646,0.46440945713886517,1.2993472432392326,0.9774186598479744,0.2854187375,0.7142577422355604
0.056,1.7216,1.0,2685.7555742470536,0.4674137145336328,1.2987381189537273,0.977664750557937,0.2853602,0.7154194396810865
0.0565,1.72019375,1.0,2683.5302303792632,0.4704011184054363,1.2981234341324612,0.9779045639686847,0.28530113749999997,0.7165893431794262
0.057,1.718775,1.0,2681.2981637265866,0.47337176181059687,1.297503174262735,0.9781383002799954,0.28524155,0.7177674148711631
0.0575,1.71734375,1.0,2679.0609656351116,0.47632573780543586,1.2968773248318484,0.9783661515173653,0.2851814375,0.7189536160736135
0.058,1.7159,1.0,2676.8202248342914,0.4792631394462745,1.2962458713271015,0.9785883019292528,0.2851208,0.7201479072756584
0.0585,1.71444375,1.0,2674.5775274215534,0.4821840597894341,1.2956087992357943,0.9788049283619418,0.2850596375,0.7213502481325633
0.059000000000000004,1.7129750000000001,1.0,2672.33445685086,0.4850885918912359,1.2949660940452272,0.979016200613448,0.28499795,0.7225605974607849
0.059500000000000004,1.71149375,1.0,2670.0925939271756,0.48797682880800114,1.2943177412427003,0.9792222817678035,0.2849357375,0.7237789132327646
0.06,1.71,1.0,2667.853516804431,0.4908488635960511,1.2936637263155135,0.9794233285109413,0.284873,0.7250051525717065
0.0605,1.7084937500000001,1.0,2665.6188009888774,0.49370478931170714,1.293004034750967,0.9796194914293378,0.2848097375,0.726239271746346
0.061,1.7069750000000001,1.0,2663.390019346779,0.4965446990112905,1.292338652036361,0.9798109152924717,0.28474595,0.7274812261657
0.0615,1.7054437500000001,1.0,2661.1659107436444,0.4993686530878309,1.2916675897234349,0.9799977381436704,0.2846816375,0.7287309218906954
0.062,1.7039,1.0,2658.947644691275,0.5021767615455249,1.2909908369984784,0.980180095481569,0.2846168,0.7299883060680006
0.0625,1.70234375,1.0,2656.737705447097,0.5049691392290624,1.2903083709167524,0.9803581173995134,0.2845514375,0.73125334749892
0.063,1.7007750000000001,1.0,2654.5363274940037,0.507745869655805,1.2896201892319028,0.9805319278017404,0.28448555,0.7325259757311122
0.0635,1.69919375,1.0,2652.3437449431926,0.5105070363431147,1.2889262896975762,0.9807016459993473,0.28441913750000003,0.7338061196479346
0.064,1.6976,1.0,2650.1601915373417,0.5132527228083529,1.2882266700674183,0.98086738691275,0.2843522,0.7350937074676263
0.0645,1.69599375,1.0,2647.9859006548363,0.5159830125688813,1.2875213280950752,0.9810292612637713,0.2842847375,0.7363886667424876
0.065,1.694375,1.0,2645.8211053130703,0.5186979891420619,1.2868102615341934,0.9811873757579684,0.28421675,0.7376909243580598
0.0655,1.69274375,1.0,2643.666038172607,0.5213977360452562,1.2860934681384186,0.9813418332577558,0.2841482375,0.7390004065323075
0.066,1.6911,1.0,2641.5209315410916,0.5240823367958259,1.2853709456613973,0.9814927329468571,0.2840792,0.7403170388147954
0.0665,1.6894437500000001,1.0,2639.3860173775065,0.5267518749111328,1.2846426918567755,0.9816401704865729,0.2840096375,0.7416407460858698
0.067,1.687775,1.0,2637.261527296114,0.5294064339085386,1.2839087044781994,0.9817842381643288,0.28393955,0.7429714525558369
0.0675,1.68609375,1.0,2635.147692571257,0.532046097305405,1.2831689812793148,0.9819250250349404,0.2838689375,0.7443090817641425
0.068,1.6844000000000001,1.0,2633.044744141334,0.5346709486190936,1.2824235200137684,0.9820626170549914,0.2837978,0.7456535565785478
0.0685,1.68269375,1.0,2630.952912613726,0.5372810713669661,1.2816723184352057,0.9821970972107161,0.2837261375,0.7470047991943115
0.069,1.680975,1.0,2628.8724282692842,0.5398765490663844,1.2809153742972732,0.982328545639735,0.28365395,0.7483627311333638
0.0695,1.67924375,1.0,2626.803521067191,0.5424574652347101,1.280152685353617,0.9824570397469824,0.28358123749999997,0.7497272732434863
0.07,1.6775,1.0,2624.746420649996,0.545023903389305,1.279384249357883,0.9825826543151412,0.283508,0.7510983456974879
0.07050000000000001,1.67574375,1.0,2622.701356348374,0.5475759470475305,1.2786100640637177,0.982705461609877,0.2834342375,0.7524758679923824
0.07100000000000001,1.673975,1.0,2620.6685571862927,0.5501136797267486,1.277830127224767,0.9828255314801536,0.28335995,0.7538597589485645
0.07150000000000001,1.67219375,1.0,2618.645398889992,0.5526371617232988,1.2770444630705422,0.9829429312587942,0.2832851375,0.7552498899297033
0.07200000000000001,1.6704,1.0,2616.630095092201,0.5551464649774691,1.2762530880897256,0.9830577264263936,0.2832098,0.7566461457936553
0.0725,1.66859375,1.0,2614.6283307990593,0.557641715653855,1.2754559494089148,0.9831699804074348,0.2831339375,0.758048532956739
0.073,1.6667750000000001,1.0,2612.6398369196663,0.560122987915312,1.2746530493919916,0.9832797539452236,0.28305755,0.7594569593739803
0.0735,1.66494375,1.0,2610.6643448415443,0.5625903559246959,1.2738443904028376,0.9833871058218877,0.2829806375,0.7608713324135787
0.074,1.6631,1.0,2608.7015864240384,0.5650438938448621,1.2730299748053346,0.9834920929330054,0.2829032,0.7622915588577753
0.0745,1.6612437500000001,1.0,2606.751293993117,0.5674836758386663,1.2722098049633643,0.9835947703589236,0.2828252375,0.7637175449037218
0.075,1.659375,1.0,2604.813200335274,0.5699097760689642,1.2713838832408082,0.983695191432925,0.28274675,0.7651491961643475
0.0755,1.65749375,1.0,2602.8870386917424,0.5723222686986115,1.2705522120015484,0.9837934078064047,0.2826677375,0.7665864176692258
