Time [s],Phi [rad],STIM [ ],Fsee [N],Gamma [ ],Lcerel [ ],q [ ],Lmtc [m],fisomrel [ ]
0.0,1.8,1.0,17.969827761705165,5.500254447610422e-05,1.3793394471470088,0.005000795515192933,0.288653,0.5411402545861024
0.0005,1.79999375,1.0,18.29416214771418,0.005663903332507745,1.37930045344932,0.013065922170130428,0.2886527375,0.5412345855010848
0.001,1.799975,1.0,21.669260187610934,0.011241342621819793,1.3789331086644185,0.03584346489318679,0.28865195,0.5421227651719387
0.0015,1.79994375,1.0,31.191411747947335,0.016787496887445862,1.378035804988038,0.07092299312125142,0.2886506375,0.544288680315836
0.002,1.7999,1.0,53.84676986654336,0.022302541612697468,1.376351001048581,0.11509819600417992,0.2886488,0.5483415944187848
0.0025,1.79984375,1.0,97.56405468940906,0.02778665129703971,1.3739137426519612,0.1649883876549651,0.28864643749999996,0.5541725543877645
0.003,1.7997750000000001,1.0,161.53788237770334,0.033239999463389895,1.3711926639544985,0.217706988567552,0.28864354999999997,0.5606377749565139
0.0035,1.79969375,1.0,238.3386327885682,0.03866275865804202,1.3685645631148677,0.2710370955459047,0.2886401375,0.566837253877381
0.004,1.7996,1.0,322.1641274948095,0.04405510046135862,1.366137632101201,0.32332653074632983,0.2886362,0.5725230687478493
0.0045000000000000005,1.7994937500000001,1.0,409.99001011438753,0.04941719549298145,1.363905867460634,0.3734243844066741,0.2886317375,0.5777184937108533
0.005,1.799375,1.0,500.15056106821964,0.054749213403147694,1.3618426857234396,0.42061221116381403,0.28862675,0.5824932104223475
0.0055,1.79924375,1.0,591.534068139752,0.060051322917705645,1.359924310470039,0.46451139537360875,0.2886212375,0.5869084525914128
0.006,1.7991000000000001,1.0,683.2627555181642,0.06532369178720557,1.3581328827334938,0.5049902992731506,0.2886152,0.5910103262276709
0.006500000000000001,1.79894375,1.0,774.6242347814463,0.07056648683989003,1.3564545735564604,0.5420844818267506,0.2886086375,0.5948346205060013
0.007,1.798775,1.0,865.021117936549,0.07577987395099411,1.3548785199616642,0.5759353266521559,0.28860155,0.5984095537940648
0.0075,1.79859375,1.0,953.9650643784458,0.08096401802555246,1.3533956785091426,0.6067450743656742,0.2885939375,0.6017585918720114
0.008,1.7984,1.0,1041.071078000186,0.08611908333830826,1.351998156196723,0.6347456781244334,0.2885858,0.6049020983230468
0.0085,1.79819375,1.0,1126.009881335741,0.09124523262345588,1.3506793951195597,0.6601784930203219,0.2885771375,0.6078570211689405
0.009000000000000001,1.797975,1.0,1208.5487552255079,0.09634262809841938,1.3494331742383203,0.6832807597087917,0.28856795,0.6106392115488892
0.0095,1.79774375,1.0,1288.528593277934,0.10141143172491325,1.3482537037342206,0.7042780123936477,0.2885582375,0.6132632584036917
0.01,1.7975,1.0,1365.7966066858903,0.10645180317564219,1.3471362946972263,0.7233803042572713,0.288548,0.6157410488006392
0.0105,1.79724375,1.0,1440.265140501936,0.11146390188730487,1.3460763671187066,0.7407798571371873,0.2885372375,0.6180840182459126
0.011,1.796975,1.0,1511.8944985783146,0.11644788656260567,1.3450695636033816,0.7566508173111708,0.28852595000000003,0.6203029217939151
0.0115,1.79669375,1.0,1580.6793824490487,0.1214039156564829,1.3441118130575456,0.771149863867689,0.2885141375,0.6224077172010485
0.012,1.7964,1.0,1646.6037827547846,0.12633214512532526,1.3431997656183237,0.7844174627385415,0.28850180000000003,0.6244066354576776
0.0125,1.79609375,1.0,1709.690425039936,0.1312327308022713,1.3423301029456634,0.7965788591117072,0.2884889375,0.6263077188048838
0.013000000000000001,1.7957750000000001,1.0,1769.978342594666,0.13610582767396817,1.3414997470193535,0.8077455864418801,0.28847555,0.6281183762299668
0.0135,1.79544375,1.0,1827.5476501331332,0.14095159130751755,1.3407055279614968,0.8180167363214708,0.2884616375,0.629846119950503
0.014,1.7951000000000001,1.0,1882.444395898867,0.1457701741409914,1.3399449808684718,0.8274806007975495,0.2884472,0.6314968430559131
0.0145,1.79474375,1.0,1934.7251925964254,0.15056172801369924,1.33921578543145,0.8362156709110441,0.2884322375,0.6330760552108563
0.015,1.794375,1.0,1984.4678443894177,0.15532640476495072,1.3385156213416034,0.8442917146447108,0.28841675,0.6345892031495797
0.0155,1.79399375,1.0,2031.7507114347063,0.16006435517106937,1.3378423662699035,0.8517708622311085,0.2884007375,0.6360412485751032
0.016,1.7936,1.0,2076.6781659209773,0.16477573046518715,1.3371938018559861,0.8587084127623072,0.2883842,0.6374373086412819
0.0165,1.7931937500000001,1.0,2119.3193442844276,0.16946067869751436,1.336568235076722,0.8651538307080665,0.2883671375,0.6387813237797844
0.017,1.792775,1.0,2159.7492644049835,0.1741193475427432,1.3359640386634042,0.8711512959521385,0.28834955,0.6400770558832101
0.0175,1.7923437500000001,1.0,2198.05398977943,0.1787518846755658,1.3353795853473256,0.8767403091217191,0.2883314375,0.6413282325645917
0.018000000000000002,1.7919,1.0,2234.313142574203,0.1833584364426377,1.3348134140449657,0.8819562856678173,0.2883128,0.6425381944373545
0.0185,1.79144375,1.0,2268.631773301289,0.18793915042647363,1.3342638969598961,0.8868309456004575,0.2882936375,0.6437106096593876
0.019,1.790975,1.0,2301.0798814884092,0.1924941703988469,1.3337298367691999,0.8913928903220648,0.28827395,0.6448482016900613
0.0195,1.79049375,1.0,2331.7291844880588,0.19702363973770687,1.333210083181404,0.8956678639696093,0.2882537375,0.645953572915312
0.02,1.79,1.0,2360.6572371974544,0.201527701821003,1.3327034859050357,0.8996790664804768,0.288233,0.6470293063349417
0.0205,1.78949375,1.0,2387.940701397753,0.20600649908378502,1.3322089552545633,0.9034474523620226,0.2882117375,0.6480778381654069
0.021,1.788975,1.0,2413.6619179145405,0.2104601746574699,1.331725392511063,0.9069919651784049,0.28818995000000003,0.649101607026088
0.021500000000000002,1.78844375,1.0,2437.8928220495914,0.21488886977048624,1.331251840857779,0.9103297884248268,0.2881676375,0.6501027357408569
0.022,1.7879,1.0,2460.6931451439273,0.21929272320197982,1.330787495551645,0.9134765365219093,0.2881448,0.651083012712597
0.0225,1.78734375,1.0,2482.125701491672,0.22367187373109648,1.330331551849596,0.9164463923686625,0.28812143749999997,0.6520442150913193
0.023,1.786775,1.0,2502.2561305330214,0.22802646013698197,1.3298832050085654,0.9192522584018821,0.28809755,0.6529881092260104
0.0235,1.78619375,1.0,2521.1457117794976,0.2323566197661667,1.3294417159376974,0.9219059014744517,0.28807313749999996,0.6539163131378363
0.024,1.7856,1.0,2538.8611260419166,0.23666249130090689,1.3290063158949181,0.9244180532186203,0.2880482,0.6548304977718538
0.0245,1.78499375,1.0,2555.4657768362895,0.24094421246329628,1.3285762866286417,0.9267985281293472,0.2880227375,0.6557322189583313
0.025,1.784375,1.0,2571.00578310749,0.24520191688150755,1.3281510889871446,0.9290563356053437,0.28799675,0.6566226492236962
0.025500000000000002,1.78374375,1.0,2585.528716541332,0.2494357381837133,1.3277301838187032,0.9311997302994988,0.2879702375,0.6575029547645377
0.026000000000000002,1.7831000000000001,1.0,2599.0834795494543,0.25364580999808617,1.3273130319715936,0.9332362855959718,0.2879432,0.6583742956044725
0.0265,1.78244375,1.0,2611.7201896989873,0.25783226595279873,1.326899094294092,0.9351729590379131,0.2879156375,0.6592378257324694
0.027,1.781775,1.0,2623.4869530643205,0.26199523870063796,1.3264878605384456,0.9370161547297644,0.28788755,0.6600946330389941
0.0275,1.7810937500000001,1.0,2634.4262197356043,0.2661348596267656,1.3260788818297222,0.9387717797470535,0.2878589375,0.6609456722725704
0.028,1.7804,1.0,2644.5925476480747,0.27025126385931036,1.3256716051918,0.9404452673477867,0.2878298,0.6617921096039423
0.0285,1.77969375,1.0,2654.01971155853,0.27434457941445195,1.3252656769570006,0.9420416598169256,0.2878001375,0.6626346919442097
0.029,1.778975,1.0,2662.742095596569,0.27841493430837005,1.324860743457645,0.9435656176454004,0.28776995,0.6634741625004663
0.029500000000000002,1.7782437500000001,1.0,2670.79463981225,0.28246245655724445,1.3244564510260544,0.9450214533678896,0.2877392375,0.6643112608022245
0.03,1.7775,1.0,2678.2127894968457,0.2864872741772547,1.32405244599455,0.9464131619974391,0.287708,0.6651467227198637
0.0305,1.77674375,1.0,2685.0324472771917,0.2904895151845807,1.3236483746954533,0.9477444484362187,0.2876762375,0.6659812804751004
0.031,1.775975,1.0,2691.286054734405,0.29446930530308685,1.3232439189165077,0.9490187559750376,0.28764395,0.6668155895519713
0.0315,1.7751937500000001,1.0,2697.0030987030646,0.2984267705233662,1.3228387906955932,0.9502392883997816,0.2876111375,0.6676502398667314
0.032,1.7744,1.0,2702.2214459857096,0.3023620425525868,1.3224326282988341,0.9514090187252167,0.2875778,0.6684859700519958
0.0325,1.77359375,1.0,2706.9636343466163,0.3062752431535451,1.3220252126636105,0.9525307294593789,0.2875439375,0.6693232219673355
0.033,1.772775,1.0,2711.2524183500354,0.3101664940890372,1.3216163247273023,0.953607013995357,0.28750955,0.6701624351686941
0.0335,1.7719437500000002,1.0,2715.110748561097,0.31403591712185946,1.3212057454272896,0.9546402917379646,0.2874746375,0.671004046889347
0.034,1.7711000000000001,1.0,2718.5617518101667,0.31788363401480807,1.3207932557009525,0.9556328218489899,0.2874392,0.6718484920178038
0.0345,1.7702437500000001,1.0,2721.628712521773,0.3217097665306794,1.3203786364856707,0.9565867157517801,0.2874032375,0.6726962030726482
0.035,1.7693750000000001,1.0,2724.3350551067815,0.32551443643226957,1.3199616687188243,0.9575039485202064,0.28736675,0.6735476101743156
0.035500000000000004,1.76849375,1.0,2726.7043274192706,0.32929776548237494,1.3195421333377932,0.958386369263209,0.2873297375,0.6744031410138136
0.036000000000000004,1.7676,1.0,2728.7459624567496,0.33305986781178376,1.3191199405777099,0.9592357222062264,0.2872922,0.6752629576711701
0.0365,1.76669375,1.0,2730.4909584144725,0.3368008716370515,1.3186948053742853,0.9600536263086714,0.2872541375,0.6761276180722144
0.037,1.765775,1.0,2731.959802072296,0.3405208965180501,1.3182665390033377,0.9608416086930731,0.28721555,0.6769974813483322
0.0375,1.76484375,1.0,2733.165488108954,0.3442200573824726,1.3178350213999275,0.9616011094234778,0.2871764375,0.6778727652159044
0.038,1.7639,1.0,2734.121062291462,0.34789846915801204,1.3174001324991138,0.9623334820679651,0.28713679999999997,0.6787536858722736
0.0385,1.76294375,1.0,2734.839615262237,0.3515562467723616,1.316961752235957,0.9630399998406731,0.28709663750000003,0.6796404579703823
0.039,1.761975,1.0,2735.3342766455044,0.35519350515321435,1.3165197605455166,0.9637218612433398,0.28705595,0.6805332945925028
0.0395,1.7609937500000001,1.0,2735.6182094741703,0.35881035922826343,1.3160740373628526,0.9643801952521076,0.2870147375,0.6814324072230424
0.04,1.76,1.0,2735.7046049354935,0.36240692392520196,1.3156244626230245,0.9650160660907344,0.286973,0.6823380057204307
0.0405,1.7589937500000001,1.0,2735.6066774365686,0.36598331417172303,1.3151709162610925,0.965630477627228,0.2869307375,0.6832502982880848
0.041,1.757975,1.0,2735.337659989848,0.3695396448955197,1.3147132782121163,0.966224377427283,0.28688795,0.6841694914444615
0.0415,1.75694375,1.0,2734.909543803418,0.3730760213105567,1.3142514398174587,0.9667986598025804,0.2868446375,0.6850957671321879
0.042,1.7559,1.0,2734.3339343003067,0.376592567822098,1.3137852960206609,0.9673541735720411,0.28680079999999997,0.686029298473298
0.0425,1.75484375,1.0,2733.6188684406375,0.3800893934081488,1.3133147742468823,0.9678917215669227,0.2867564375,0.6869701920874529
0.043000000000000003,1.753775,1.0,2732.77228751644,0.383566606253893,1.3128398028532096,0.968412063468569,0.28671155,0.6879185515011639
0.043500000000000004,1.75269375,1.0,2731.802137832328,0.38702431454451436,1.3123603101967298,0.9689159186100416,0.28666613750000003,0.6888744789980954
0.044,1.7516,1.0,2730.7163688628334,0.3904626264651967,1.3118762246345292,0.9694039685179829,0.2866202,0.6898380755985736
0.0445,1.75049375,1.0,2729.5229315245365,0.3938816502011238,1.3113874745236946,0.969876859269991,0.2865737375,0.6908094410387609
0.045,1.7493750000000001,1.0,2728.2297765611306,0.39728149393747964,1.3108939882213129,0.9703352036825857,0.28652675,0.6917886737495096
0.0455,1.74824375,1.0,2726.844853042886,0.40066226585944786,1.3103956940844703,0.9707795833434821,0.2864792375,0.692775870834885
0.046,1.7471,1.0,2725.3761069796788,0.4040240741522123,1.309892520470254,0.9712105505006541,0.2864312,0.6937711280503609
0.0465,1.7459437500000001,1.0,2723.826188563234,0.4073670121070032,1.309384443883392,0.9716286313492243,0.28638263750000004,0.6947744447798607
0.047,1.744775,1.0,2722.189379745752,0.41069115590852173,1.3088715170020757,0.9720343293863276,0.28633355,0.6957856695945039
0.0475,1.74359375,1.0,2720.4950270689264,0.41399668155786945,1.3083534733525308,0.9724281136237739,0.28628393750000003,0.696805278926754
0.048,1.7424,1.0,2718.7460871223043,0.41728368757196793,1.3078302865010845,0.9728104372147688,0.2862338,0.6978332739561871
0.0485,1.74119375,1.0,2716.9455144985263,0.4205522724677386,1.3073019300140636,0.9731817315809387,0.2861831375,0.6988696550052027
0.049,1.739975,1.0,2715.096261506233,0.4238025347621029,1.3067683774577954,0.97354240765113,0.28613195,0.6999144215303303
0.0495,1.73874375,1.0,2713.2012778996427,0.4270345729719823,1.306229602398607,0.9738928570186627,0.2860802375,0.7009675721134918
0.05,1.7375,1.0,2711.2635106228327,0.4302484856142983,1.3056855784028256,0.9742334530231069,0.286028,0.7020291044532205
0.0505,1.73624375,1.0,2709.2859035698425,0.43344437120597235,1.3051362790367782,0.9745645517621297,0.2859752375,0.7030990153558336
0.051000000000000004,1.734975,1.0,2707.2713973602345,0.43662232826392583,1.3045816778667922,0.9748864930385265,0.28592195,0.7041773007265613
0.051500000000000004,1.73369375,1.0,2705.222929130116,0.43978245530508037,1.3040217484591945,0.9751996012471207,0.2858681375,0.7052639555606323
0.052000000000000005,1.7324,1.0,2703.143432338455,0.4429248508463573,1.3034564643803122,0.9755041862058494,0.2858138,0.7063589739343124
0.0525,1.73109375,1.0,2701.0358365894467,0.4460496134046781,1.3028857991964726,0.9758005439350026,0.28575893750000003,0.7074623489958995
0.053,1.729775,1.0,2698.9030674697146,0.4491568414969643,1.3023097264740027,0.9760889573882704,0.28570355000000003,0.7085740729566763
0.0535,1.72844375,1.0,2696.748046401301,0.4522466336401373,1.3017282197792297,0.976369697138973,0.2856476375,0.709694137081814
0.054,1.7271,1.0,2694.573690510508,0.4553190883511186,1.3011412526784807,0.9766430220245724,0.2855912,0.7108225316812355
0.0545,1.7257437500000001,1.0,2692.3829125113807,0.45837430414682967,1.300548798738083,0.9769091797523414,0.2855342375,0.7119592461004314
0.055,1.724375,1.0,2690.1786206054994,0.46141237954419195,1.2999508315243635,0.9771684074688334,0.28547675,0.7131042687112337
0.0555,1.72299375,1.0,2687.9637183968393,0.4644334130601269,1.2993473246036493,0.9774209322956013,0.2854187375,0.7142575869025427
0.056,1.7216,1.0,2685.7411048221893,0.467437503211556,1.2987382515422676,0.9776669718334321,0.2853602,0.7154191870710103
0.0565,1.72019375,1.0,2683.513674097027,0.4704247485154007,1.2981235859065459,0.9779067346371865,0.28530113749999997,0.7165890546116784
0.057,1.718775,1.0,2681.281805395406,0.47339523521513305,1.2975033242845726,0.9781404208811044,0.28524155,0.717767130228407
0.0575,1.71734375,1.0,2679.045975919573,0.47634906112193787,1.296877462359516,0.9783682235552433,0.2851814375,0.7189533556855042
0.058,1.7159,1.0,2676.8087826231886,0.4792863275584622,1.2962459763510146,0.9785903270344823,0.2851208,0.7201477088515118
0.0585,1.71444375,1.0,2674.571099190265,0.4822071241697453,1.2956088582629066,0.9788069081491171,0.2850596375,0.7213501368510867
0.059000000000000004,1.7129750000000001,1.0,2672.333797849483,0.4851115406008265,1.294966100099031,0.9790181366906273,0.28499795,0.7225605860726037
0.059500000000000004,1.71149375,1.0,2670.097749372969,0.48799966649674503,1.2943176938632268,0.9792241757451895,0.2849357375,0.7237790021652803
0.06,1.71,1.0,2667.8638230759407,0.4908715915025402,1.2936636315593328,0.9794251820088605,0.284873,0.7250053300363024
0.0605,1.7084937500000001,1.0,2665.632886817966,0.49372740526325143,1.2930039051911881,0.9796213060855768,0.2848097375,0.7262395138479376
0.061,1.7069750000000001,1.0,2663.4058070057326,0.49656719742391786,1.2923385067626312,0.9798126927690288,0.28474595,0.7274814970146526
0.0615,1.7054437500000001,1.0,2661.18344859659,0.4993910576295788,1.2916674282775011,0.9799994813093992,0.2846816375,0.7287312222002191
0.062,1.7039,1.0,2658.9666751049367,0.5021990755252737,1.290990661739637,0.980181805665888,0.2846168,0.7299886313148221
0.0625,1.70234375,1.0,2656.7563486082377,0.5049913407560416,1.290308199152877,0.980359794745881,0.2845514375,0.7312536655121603
0.063,1.7007750000000001,1.0,2654.55332975576,0.507767942966922,1.2896200325210607,0.9805335726315635,0.28448555,0.7325262651865425
0.0635,1.69919375,1.0,2652.3584777784345,0.510528971802954,1.2889261538480268,0.9807032587947278,0.28441913750000003,0.733806369969982
0.064,1.6976,1.0,2650.171599661387,0.5132744955394959,1.2882265648312365,0.9808689672357886,0.2843522,0.7350939009106665
0.0645,1.69599375,1.0,2647.9933042198822,0.5160046054413219,1.2875212597715704,0.9810308090899601,0.2842847375,0.7363887920260496
0.065,1.694375,1.0,2645.825483134782,0.518719420656161,1.2868102211171044,0.981188892834353,0.28421675,0.7376909982868549
0.0655,1.69274375,1.0,2643.668237622842,0.5214190224995672,1.2860934478242931,0.9813433211638075,0.2841482375,0.7390004435969657
0.066,1.6911,1.0,2641.5216687693655,0.5241034922870945,1.2853709388495909,0.9814941931042798,0.2840792,0.7403170512120634
0.0665,1.6894437500000001,1.0,2639.3858775302856,0.5267729113342968,1.284642693149452,0.9816416041685,0.2840096375,0.7416407437392442
0.067,1.687775,1.0,2637.2609647339823,0.5294273609567282,1.2839087096803306,0.9817856465039528,0.28393955,0.7429714431366383
0.0675,1.68609375,1.0,2635.1470310838945,0.5320669224699425,1.2831689873986813,0.9819264090336077,0.2838689375,0.7443090707130275
0.068,1.6844000000000001,1.0,2633.0441771603223,0.5346916771894937,1.2824235252609584,0.9820639775898021,0.2837978,0.7456535471274643
0.0685,1.68269375,1.0,2630.9525034226044,0.5373017064309358,1.2816723222236162,0.9821984350416567,0.2837261375,0.7470047923888883
0.069,1.680975,1.0,2628.87211021158,0.5398970915098228,1.2809153772431092,0.982329861416377,0.28365395,0.748362725855745
0.0695,1.67924375,1.0,2626.8030977514627,0.5424779137417085,1.2801526892758917,0.9824583340147729,0.28358123749999997,0.7497272662356049
0.07,1.6775,1.0,2624.7455661525387,0.545044254442147,1.279384257278418,0.9825839275213111,0.283508,0.7510983315847792
0.07050000000000001,1.67574375,1.0,2622.699615413028,0.5475961949266923,1.2786100802071423,0.9827067141089932,0.2834342375,0.7524758393079393
0.07100000000000001,1.673975,1.0,2620.6653454214447,0.5501338165108982,1.2778301570185193,0.9828267635393361,0.28335995,0.7538597061577325
0.07150000000000001,1.67219375,1.0,2618.6428559591495,0.5526572005103189,1.2770444866690032,0.9829441432577118,0.2832851375,0.7552498482344022
0.07200000000000001,1.6704,1.0,2616.6322467026957,0.5551664282405081,1.2762530681150481,0.9830589184842979,0.2832098,0.7566461809854037
0.0725,1.66859375,1.0,2614.633617225751,0.5576615810170198,1.275455900313109,0.9831711523008592,0.2831339375,0.758048619205021
0.073,1.6667750000000001,1.0,2612.647067002169,0.5601427401554081,1.2746529822196395,0.9832809057335844,0.28305755,0.7594570770339872
0.0735,1.66494375,1.0,2610.6726954077994,0.5626099869712269,1.2738443127910943,0.9833882378321804,0.2829806375,0.7608714679590984
0.074,1.6631,1.0,2608.712297243375,0.5650633448700781,1.2730298752195328,0.9834932017329284,0.2829032,0.7622917322627754
0.0745,1.6612437500000001,1.0,2606.764250431672,0.5675029574564637,1.2722096844534774,0.9835958571029979,0.2828252375,0.7637177541126858
0.075,1.659375,1.0,2604.828059381175,0.5699289064328565,1.271383744983088,0.9836962577562197,0.28274675,0.765149435455849
0.0755,1.65749375,1.0,2602.9034747005935,0.5723412639960785,1.2705520590142418,0.9837944551799408,0.2826677375,0.7665866816427112
