Time [s],Phi [rad],STIM [ ],Fsee [N],Gamma [ ],Lcerel [ ],q [ ],Lmtc [m],fisomrel [ ]
0.0,1.8,1.0,18.00957582528068,0.00020922689213551858,1.3793349968249806,0.005011390154909626,0.288653,0.5411510209942345
0.0005,1.79999375,1.0,18.383920671178547,0.005817262603566856,1.3792904999661288,0.013502856205939294,0.2886527375,0.5412586627405741
0.001,1.799975,1.0,21.873503905057596,0.011393841668639423,1.3789123215465073,0.03665429351387708,0.28865195,0.5421729992992227
0.0015,1.79994375,1.0,31.64367400172352,0.016939140535240045,1.3779974877298886,0.07202821526396744,0.2886506375,0.5443810563453212
0.002,1.7999,1.0,54.792237587467184,0.022453334659414362,1.376290080991817,0.11640412527726972,0.2886488,0.5484878027652161
0.0025,1.79984375,1.0,99.12910829719908,0.027936598514088147,1.3738387980428375,0.16640723328156598,0.28864643749999996,0.5543512534371384
0.003,1.7997750000000001,1.0,163.5587085880783,0.033389105595082604,1.3711173930331626,0.21916952945041754,0.28864354999999997,0.5608159457534092
0.0035,1.79969375,1.0,240.6133329901742,0.03881102842215092,1.3684947588775305,0.27249091419310767,0.2886401375,0.5670013159432101
0.004,1.7996,1.0,324.57912345367856,0.04420253854928218,1.366073856642853,0.3247336289272769,0.2886362,0.572671975391033
0.0045000000000000005,1.7994937500000001,1.0,412.4873827175076,0.049563806570042876,1.36384738518885,0.3747596761113219,0.2886317375,0.5778542101123618
0.005,1.799375,1.0,502.6961590306529,0.05489500210944399,1.3617887004555076,0.42186119748175704,0.28862675,0.5826177813224331
0.0055,1.79924375,1.0,594.1000624300334,0.06019629386233026,1.3598742629030593,0.4656675817883204,0.2886212375,0.587023325573915
0.006,1.7991000000000001,1.0,685.8290586617048,0.06546784955941216,1.358086303296419,0.5060527226866695,0.2886152,0.5911167072433197
0.006500000000000001,1.79894375,1.0,777.1699634533846,0.070709835982567,1.3564111727725334,0.5430558684324827,0.2886086375,0.5949332778153933
0.007,1.798775,1.0,867.5337171194631,0.07592241904725315,1.354837980104905,0.5768205403763057,0.28860155,0.5985013006220377
0.0075,1.79859375,1.0,956.4307661876555,0.081105763544001,1.3533577922836875,0.6075501977161464,0.2885939375,0.6018439752308622
0.008,1.7984,1.0,1043.4833512782566,0.08626003373740267,1.3519626730330196,0.6354772346836199,0.2885858,0.6049817499727415
0.0085,1.79819375,1.0,1128.3698872777072,0.09138539245505202,1.3506460139158816,0.6608430064842097,0.2885771375,0.6079316738676767
0.009000000000000001,1.797975,1.0,1210.845533497801,0.09648200182440729,1.3494018148075897,0.6838846399773639,0.28856795,0.6107090937792181
0.0095,1.79774375,1.0,1290.7519241112018,0.10155002356075689,1.3482243030648473,0.704827275124337,0.2885582375,0.6133285547034484
0.01,1.7975,1.0,1367.9474314288964,0.10658961755775423,1.3471086680292046,0.723880424257773,0.288548,0.6158022084789269
0.0105,1.79724375,1.0,1442.3438799307025,0.11160094317459235,1.3460503649490783,0.7412358309483933,0.2885372375,0.6181414059904649
0.011,1.796975,1.0,1513.9076001674796,0.11658415948532873,1.345044985530273,0.7570671272229542,0.28852595000000003,0.6203570088023395
0.0115,1.79669375,1.0,1582.615643501312,0.12153942408576557,1.3440886925982758,0.7715306330676515,0.2885141375,0.6224584554400806
0.012,1.7964,1.0,1648.4613462597822,0.1264668932545875,1.3431780328994778,0.7847663270175389,0.28850180000000003,0.624454201961878
0.0125,1.79609375,1.0,1711.4712778417802,0.1313667227989563,1.3423096552857372,0.7968990420060245,0.2884889375,0.626352359369132
0.013000000000000001,1.7957750000000001,1.0,1771.7036250216609,0.13623906875469227,1.34148027738446,0.8080398738731737,0.28847555,0.6281607785632405
0.0135,1.79544375,1.0,1829.2064425188755,0.14108408515867724,1.3406871055473117,0.8182877470119516,0.2884616375,0.6298861483220499
0.014,1.7951000000000001,1.0,1884.0260962385205,0.14590192444006497,1.339927672373403,0.8277306599119738,0.2884472,0.6315343672028073
0.0145,1.79474375,1.0,1936.232934617165,0.1506927390280092,1.339199510461845,0.8364467928687006,0.2884322375,0.6331112630817751
0.015,1.794375,1.0,1985.9061385215991,0.1554566805063156,1.338500291615919,0.8445056875524666,0.28841675,0.6346222977549038
0.0155,1.79399375,1.0,2033.140936463168,0.1601939010130704,1.3378277221593684,0.851969223321191,0.2884007375,0.6360728001932799
0.016,1.7936,1.0,2078.0106592334423,0.16490454987862369,1.3371799183814328,0.85889263542827,0.2883842,0.637467164031538
0.0165,1.7931937500000001,1.0,2120.586957700607,0.16958877525628457,1.3365551609985247,0.8653252216180294,0.2883671375,0.6388093864963557
0.017,1.792775,1.0,2160.9539121653233,0.17424672529936214,1.335951730727057,0.8713109961074063,0.28834955,0.6401034267267061
0.0175,1.7923437500000001,1.0,2199.2001481275565,0.1788785474410447,1.335367977378892,0.8768893327187011,0.2883314375,0.6413530604234406
0.018000000000000002,1.7919,1.0,2235.4189549650196,0.18348438935924388,1.334802305860468,0.8820955066490441,0.2883128,0.6425619132350561
0.0185,1.79144375,1.0,2269.6939748835057,0.18806439718859314,1.3342533078003873,0.8869612046862381,0.2882936375,0.6437331831138379
0.019,1.790975,1.0,2302.0939387702583,0.1926187145535226,1.3337197990237226,0.891514946561863,0.28827395,0.6448695654960657
0.0195,1.79049375,1.0,2332.694042264139,0.1971474850784624,1.3332005953555472,0.8957823928244711,0.2882537375,0.6459737348683319
0.02,1.79,1.0,2361.5754064173275,0.20165085238784258,1.3326945126209342,0.8997866693952102,0.288233,0.6470483458925991
0.0205,1.78949375,1.0,2388.812466623241,0.20612895841829826,1.332200484238239,0.9035486775563972,0.2882117375,0.6480957853057385
0.021,1.788975,1.0,2414.494343440292,0.21058194740334663,1.3317173469356878,0.9070872953411532,0.28818995000000003,0.6491186280036625
0.021500000000000002,1.78844375,1.0,2438.6877532818658,0.21500995973395068,1.331244195915063,0.9104196715044839,0.2881676375,0.6501188860732889
0.022,1.7879,1.0,2461.4517850132843,0.21941313413038493,1.3307802334747798,0.9135613805399131,0.2881448,0.6510983327243947
0.0225,1.78734375,1.0,2482.848590022422,0.22379160931292397,1.3303246619132538,0.9165265696375959,0.28812143749999997,0.652058730012419
0.023,1.786775,1.0,2502.943126920251,0.22814552400184224,1.3298766835289009,0.9193281092463315,0.28809755,0.6530018292856294
0.0235,1.78619375,1.0,2521.7995923845056,0.23247501634236914,1.3294355320911544,0.9219777315725001,0.28807313749999996,0.6539293054713584
0.024,1.7856,1.0,2539.4753201118856,0.23678022300072282,1.3290005276451817,0.9244861568027356,0.2880482,0.6548426428864542
0.0245,1.78499375,1.0,2556.0471280897036,0.24106128347197228,1.3285708257030513,0.9268631527798686,0.2880227375,0.6557436622985175
0.025,1.784375,1.0,2571.559386599638,0.24531833121857508,1.3281459044344193,0.9291177109129027,0.28799675,0.6566334993715466
0.025500000000000002,1.78374375,1.0,2586.0578869462825,0.24955149970298862,1.327725242008942,0.9312580696044054,0.2879702375,0.6575132836421569
0.026000000000000002,1.7831000000000001,1.0,2599.589723851817,0.2537609223876704,1.327308316596276,0.9332917875346687,0.2879432,0.6583841386699998
0.0265,1.78244375,1.0,2612.2031838871153,0.2579467327350779,1.3268946063660774,0.9352258089203523,0.2879156375,0.6592471821708141
0.027,1.781775,1.0,2623.947591592294,0.2621090641840014,1.3264835899362302,0.9370665217708697,0.28788755,0.660103525198825
0.0275,1.7810937500000001,1.0,2634.8665089816336,0.2662480463405596,1.3260748083618874,0.9388198176040583,0.2878589375,0.6609541433410664
0.028,1.7804,1.0,2645.013102008808,0.2703638153547254,1.3256677217851598,0.940491120198879,0.2878298,0.66180017534204
0.0285,1.77969375,1.0,2654.421298559342,0.27445649926810534,1.3252619752799635,0.9420854606897238,0.2878001375,0.6626423706536239
0.029,1.778975,1.0,2663.125635543702,0.2785262261223056,1.3248572139202137,0.9436074894119092,0.28776995,0.663481475012744
0.029500000000000002,1.7782437500000001,1.0,2671.1612053246886,0.2825731239589325,1.3244530827798269,0.9450615096388768,0.2877392375,0.6643182304676876
0.03,1.7775,1.0,2678.5636049388086,0.2865973208195925,1.3240492269327186,0.9464515079274765,0.287708,0.6651533753963885
0.0305,1.77674375,1.0,2685.36888811019,0.2905989447458918,1.323645291452805,0.9477811814492713,0.2876762375,0.6659876445166739
0.031,1.775975,1.0,2691.6014645550968,0.2945781182990418,1.3232410317626042,0.94905397493626,0.28764395,0.6668215414064003
0.0315,1.7751937500000001,1.0,2697.300786985963,0.2985349727625445,1.322836068643622,0.9502730755828476,0.2876111375,0.6676558443326868
0.032,1.7744,1.0,2702.5059370957683,0.30246963834829754,1.3224300294310865,0.951441448887086,0.2875778,0.6684913141615711
0.0325,1.77359375,1.0,2707.238347952235,0.30638223651656776,1.3220227053115485,0.9525618733593757,0.2875439375,0.669328371377014
0.033,1.772775,1.0,2711.519663235257,0.31027288872762193,1.3216138874715597,0.9536369387178063,0.28750955,0.670167434264767
0.0335,1.7719437500000002,1.0,2715.371717533921,0.3141417164417267,1.3212033670976713,0.9546690609847766,0.2874746375,0.6710089188938733
0.034,1.7711000000000001,1.0,2718.816517609752,0.31798884111914894,1.3207909353764342,0.955660496205385,0.2874392,0.671853239095384
0.0345,1.7702437500000001,1.0,2721.8762246267365,0.3218143842201553,1.3203763834944,0.9566133529279814,0.2874032375,0.6727008064382944
0.035,1.7693750000000001,1.0,2724.5731373484205,0.3256184672050126,1.31995950263812,0.9575296035715923,0.28736675,0.6735520302027007
0.035500000000000004,1.76849375,1.0,2726.929676301651,0.32940121153398755,1.319540083994145,0.9584110947911404,0.2873297375,0.6744073173501748
0.036000000000000004,1.7676,1.0,2728.968368906478,0.3331627386673469,1.3191179187490267,0.9592595569392444,0.2872922,0.6752670724913571
0.0365,1.76669375,1.0,2730.703786567212,0.3369031621182896,1.3186928712355632,0.9600766183375368,0.2872541375,0.6761315491825024
0.037,1.765775,1.0,2732.1622251846607,0.34062260981901255,1.3182646999163175,0.9608637998446192,0.28721555,0.6770012142448227
0.0375,1.76484375,1.0,2733.3584049595643,0.3443211982163765,1.3178332690658203,0.9616225378003673,0.2871764375,0.6778763172032329
0.038,1.7639,1.0,2734.305326837778,0.3479990419081058,1.3173984590482195,0.9623541834632154,0.28713679999999997,0.6787570733221164
0.0385,1.76294375,1.0,2735.0160362775296,0.3516562554919248,1.3169601502276629,0.9630600079041278,0.28709663750000003,0.6796436963254381
0.039,1.761975,1.0,2735.5036173970657,0.3552929535655577,1.3165182229682981,0.9637412076344026,0.28705595,0.6805363983705062
0.0395,1.7609937500000001,1.0,2735.781187440809,0.3589092507267288,1.3160725576342729,0.964398909780012,0.2870147375,0.6814353900208203
0.04,1.76,1.0,2735.8618915615366,0.36250526157316243,1.3156230345897348,0.9650341768434814,0.286973,0.6823408802180071
0.0405,1.7589937500000001,1.0,2735.7588979206853,0.3660811007025828,1.315169534198832,0.9656480110902258,0.2869307375,0.6832530762528419
0.041,1.757975,1.0,2735.4853931059224,0.36963688271271433,1.314711936825712,0.9662413585926065,0.28688795,0.6841721837353604
0.0415,1.75694375,1.0,2735.0688251724177,0.37317270811974484,1.3142499934636247,0.9668150995243777,0.2868446375,0.6850986658421934
0.042,1.7559002100247803,1.0,2734.5130837651704,0.37668870546218114,1.313783763936305,0.9673700965689512,0.28680080882104075,0.6860323644450421
0.0425,1.7548525014478111,1.0,2734.1924163651393,0.3801849897139084,1.313313517382021,0.9679071804367583,0.2867568050608081,0.6869727035258484
0.043000000000000003,1.753804792870842,1.0,2734.288806731343,0.3836616679447999,1.3128394832776997,0.9684271325130235,0.28671280130057536,0.6879191891024932
0.043500000000000004,1.752757084293873,1.0,2734.777006430532,0.38711884722472883,1.312361891100268,0.9689306925336699,0.2866687975403427,0.6888713296819655
0.044,1.7517093757169038,1.0,2735.6318459503714,0.3905566346235684,1.3118809703266525,0.9694185612266399,0.28662479378010997,0.6898286363141126
0.0445,1.7506616671399349,1.0,2736.8282171808282,0.3939751372111919,1.3113969504337801,0.9698914027608032,0.28658079001987724,0.6907906226420342
0.045,1.7496139585629658,1.0,2738.34105706225,0.3973744620574725,1.310910060898578,0.9703498470182093,0.28653678625964457,0.6917568049491152
0.0455,1.7485662499859966,1.0,2740.145332401285,0.4007547162322835,1.3104205311979726,0.9707944917040083,0.28649278249941185,0.6927267022027057
0.046,1.7475185414090275,1.0,2742.216025854477,0.404116006805498,1.3099285908088911,0.9712259043070843,0.2864487787391792,0.6936998360944353
0.0465,1.7464708328320584,1.0,2744.5281230792057,0.4074584408469893,1.30943446920826,0.9716446239232809,0.28640477497894645,0.6946757310771761
0.047,1.7454231242550893,1.0,2747.056601052173,0.4107821254266306,1.3089383958730065,0.972051162952054,0.2863607712187137,0.69565391439864
0.0475,1.7443754156781202,1.0,2749.7764175557636,0.4140871676142952,1.3084406002800573,0.9724460086764406,0.28631676745848106,0.6966339161316262
0.048,1.743327707101151,1.0,2752.6718288436223,0.417373667494588,1.307941227484835,0.9728296179017518,0.28627276369824833,0.6976154349972357
0.0485,1.742279998524182,1.0,2755.7326935291044,0.4206417275088718,1.3074403717165777,0.9732024223000785,0.28622875993801566,0.6985982711695553
0.049,1.7412322899472128,1.0,2758.927711108654,0.4238914666146672,1.306938318432828,0.9735648482018626,0.28618475617778294,0.699581851650599
0.0495,1.7401845813702437,1.0,2762.2488411895424,0.4271229839890013,1.3064351423626852,0.9739172851574379,0.2861407524175502,0.7005660188940078
0.05,1.7391368727932746,1.0,2765.68803225481,0.4303363788089012,1.3059309182352485,0.9742601046185865,0.28609674865731755,0.7015506162874288
0.0505,1.7380891642163054,1.0,2769.2372198647813,0.4335317502513939,1.3054257207796176,0.9745936609439416,0.2860527448970848,0.7025354881576884
0.051000000000000004,1.7370414556393363,1.0,2772.88832498282,0.4367091974935066,1.304919624724891,0.9749182923399158,0.28600874113685215,0.7035204797756109
0.051500000000000004,1.7359937470623672,1.0,2776.633252424174,0.4398688197122663,1.304412704800169,0.9752343217418266,0.2859647373766194,0.7045054373604757
0.052000000000000005,1.734946038485398,1.0,2780.4638894293334,0.4430107160847002,1.3039050357345503,0.975542057639515,0.2859207336163867,0.7054902080841254
0.0525,1.7338983299084292,1.0,2784.372104360935,0.44613498578783534,1.3033966922571343,0.975841794851405,0.28587672985615403,0.7064746400747123
0.053,1.73285062133146,1.0,2788.349745523986,0.44924172799869877,1.3028877490970203,0.9761338152506448,0.2858327260959213,0.7074585824200907
0.0535,1.731802912754491,1.0,2792.388640111032,0.45233104189431766,1.3023782809833078,0.9764183884466819,0.28578872233568864,0.7084418851708539
0.054,1.7307552041775218,1.0,2796.4805932698805,0.45540302665171906,1.301868362645096,0.9766957724253653,0.2857447185754559,0.7094243993430129
0.0545,1.7297074956005527,1.0,2800.6173872962304,0.45845778144793004,1.301358068811484,0.9769662141504273,0.2857007148152232,0.7104059769203215
0.055,1.7286597870235836,1.0,2804.7962992691764,0.4614953944870309,1.300847424729964,0.9772299461242915,0.2856567110549905,0.7113865657951169
0.0555,1.7276120784466145,1.0,2809.0107872708177,0.46451597004719986,1.3003364897989083,0.9774871946562992,0.2856127072947578,0.7123660487731833
0.056,1.7265643698696453,1.0,2813.2536484685756,0.46751961129320607,1.2998253291616801,0.977738176861058,0.2855687035345251,0.7133442984473539
0.0565,1.7255166612926762,1.0,2817.5224482495296,0.4705064100130134,1.2993139651099743,0.9779830973790804,0.2855246997742924,0.7143212700578606
0.057,1.724468952715707,1.0,2821.814744744236,0.4734764579945855,1.2988024199354862,0.9782221525058188,0.2854806960140597,0.7152969191348768
0.0575,1.723421244138738,1.0,2826.1280887318057,0.47642984702588614,1.2982907159299097,0.9784555306001289,0.285436692253827,0.7162712014987943
0.058,1.7223735355617689,1.0,2830.4600235552225,0.4793666688948791,1.2977788753849404,0.9786834124695777,0.2853926884935943,0.7172440732604596
0.0585,1.7213258269847997,1.0,2834.8080850492875,0.48228701538952806,1.2972669205922727,0.9789059717340829,0.2853486847333616,0.7182154908213886
0.059000000000000004,1.7202781184078306,1.0,2839.169801477845,0.48519097829779684,1.2967548738436012,0.9791233751692621,0.2853046809731289,0.7191854108739424
0.059500000000000004,1.7192304098308615,1.0,2843.542693483288,0.4880786494076491,1.2962427574306212,0.9793357830307807,0.28526067721289616,0.7201537904014736
0.06,1.7181827012538924,1.0,2847.9242740466257,0.4909501205070486,1.295730593645027,0.9795433493608844,0.2852166734526635,0.7211205866784437
0.0605,1.7171349926769235,1.0,2852.312048458154,0.4938054833839592,1.2952184047785136,0.9797462222782299,0.28517266969243077,0.7220857572705028
0.061,1.7160872840999544,1.0,2856.703514300089,0.49664482982634445,1.2947062131227756,0.979944544252045,0.2851286659321981,0.7230492600345446
0.0615,1.7150395755229852,1.0,2861.096161439076,0.49946825162216824,1.294194040969508,0.9801384523615774,0.2850846621719654,0.7240110531187226
0.062,1.7139918669460161,1.0,2865.490966239384,0.5022758183711371,1.2936818796121827,0.9803280752351321,0.28504065841173265,0.7249711530212226
0.0625,1.712944158369047,1.0,2869.8837102060966,0.5050676442898379,1.293169766420893,0.9805135424799544,0.2849966546515,0.7259294899767827
0.063,1.711896449792078,1.0,2874.272781916927,0.5078438213603487,1.2926577155586647,0.9806949760457113,0.28495265089126726,0.7268860380229072
0.0635,1.7108487412151088,1.0,2878.6576089049613,0.5106044338641075,1.292145731949692,0.9808724923818186,0.2849086471310346,0.7278407885955953
0.064,1.7098010326381397,1.0,2883.0376170361073,0.513349566082552,1.2916338205181697,0.9810462037138088,0.28486464337080186,0.7287937331950766
0.0645,1.7087533240611705,1.0,2887.4122305171086,0.5160793022971203,1.2911219861882919,0.981216218227812,0.28482063961056914,0.7297448633857908
0.065,1.7077056154842014,1.0,2891.780871903865,0.5187937267892501,1.290610233884253,0.9813826402456836,0.28477663585033647,0.7306941707963639
0.0655,1.7066579069072323,1.0,2896.1429621095426,0.5214929238403792,1.2900985685302475,0.981545570391318,0.28473263209010374,0.7316416471195832
0.066,1.7056101983302632,1.0,2900.4979204143397,0.5241769777319454,1.28958699505047,0.981705105748651,0.2846886283298711,0.7325872841123697
0.0665,1.704562489753294,1.0,2904.8451644749443,0.5268459727453868,1.2890755183691147,0.9818613400118246,0.28464462456963835,0.7335310735957514
0.067,1.703514781176325,1.0,2909.1841103350357,0.529499993162141,1.2885641434103758,0.9820143636279544,0.2846006208094056,0.7344730074548343
0.0675,1.7024670725993558,1.0,2913.51417243602,0.532139123263646,1.2880528750984483,0.9821642639329129,0.28455661704917296,0.7354130776387683
0.068,1.7014193640223867,1.0,2917.8347636282706,0.5347634473313395,1.2875417183575262,0.9823111252805208,0.28451261328894023,0.7363512761607178
0.0685,1.7003716554454176,1.0,2922.145295183344,0.5373730496466596,1.2870306781118037,0.9824550291655053,0.28446860952870756,0.7372875950978257
0.069,1.6993239468684487,1.0,2926.4451768059876,0.5399680144910439,1.2865197592854758,0.9825960543405696,0.28442460576847484,0.7382220265911767
0.0695,1.6982762382914796,1.0,2930.7338166477743,0.5425484261459304,1.2860089668027366,0.9827342769278952,0.2843806020082421,0.7391545628457625
0.07,1.6972285297145104,1.0,2935.0119484063275,0.5451143241993717,1.2854982939550503,0.98286976724546,0.28433659824800944,0.7400852173110832
0.07050000000000001,1.6961808211375413,1.0,2939.2785685727695,0.5476658293151192,1.2849877492709236,0.9830025989547796,0.2842925944877767,0.7410139756552716
0.07100000000000001,1.6951331125605722,1.0,2943.532942678682,0.5502030447339199,1.2844773389001392,0.983132842121106,0.28424859072754405,0.7419408279728807
0.07150000000000001,1.694085403983603,1.0,2947.775057899876,0.5527260459204231,1.2839670626637782,0.9832605625882873,0.2842045869673113,0.7428657758995723
0.07200000000000001,1.693037695406634,1.0,2952.004901591112,0.555234908339278,1.2834569203829211,0.9833858240856452,0.2841605832070786,0.7437888210683364
