Time [s],Phi [rad],STIM [ ],Fsee [N],Gamma [ ],Lcerel [ ],q [ ],Lmtc [m],fisomrel [ ]
0.0,1.8,1.0,19.713127759891545,0.0013499552294247191,1.3791486735340164,0.005466808994324133,0.288653,0.5416016688692471
0.0005,1.79999375,1.0,20.400873002143925,0.006951592356915872,1.3790729223426588,0.017074524317163057,0.2886527375,0.5417848199827697
0.001,1.799975,1.0,24.744724713337344,0.012521808729922987,1.3786297702484591,0.04292743065899463,0.28865195,0.5428555391632623
0.0015,1.79994375,1.0,36.525633201235415,0.018060780592095538,1.3776001305716232,0.0803970746413377,0.2886506375,0.5453384610723632
0.002,1.7999,1.0,63.54343508773035,0.023568683202389525,1.37574943931478,0.12617583196008952,0.2886488,0.5497843075721571
0.0025,1.79984375,1.0,112.36997458362626,0.02904569083340405,1.3732270429200701,0.17694925848322327,0.28864643749999996,0.5558085919424112
0.003,1.7997750000000001,1.0,179.87263016816942,0.034491976783649424,1.3705260174528189,0.22998694652021243,0.28864354999999997,0.5622145101739584
0.0035,1.79969375,1.0,258.5594359490484,0.039907713375518516,1.367955226776774,0.28320875646963345,0.2886401375,0.5682683389274643
0.004,1.7996,1.0,343.39271286722715,0.04529307196738996,1.365584936376902,0.33508204088575294,0.2886362,0.5738126731323233
0.0045000000000000005,1.7994937500000001,1.0,431.78499595892754,0.050648222957972014,1.3634013254241015,0.3845626222097981,0.2886317375,0.578888637372469
0.005,1.799375,1.0,522.233108522949,0.055973335743801554,1.3613788438771934,0.4310190464326817,0.28862675,0.5835629183609155
0.0055,1.79924375,1.0,613.7173542875099,0.06126857895258732,1.3594951617480024,0.47413718330663474,0.2886212375,0.5878929485962295
0.006,1.7991000000000001,1.0,705.3723596408865,0.06653411996368643,1.3577344059399947,0.5138307072541775,0.2886152,0.5919199451746144
0.006500000000000001,1.79894375,1.0,796.524715395563,0.07177012545825437,1.3560835018080895,0.550164243224811,0.2886086375,0.5956777415181389
0.007,1.798775,1.0,886.6042884261625,0.07697676112392668,1.354532177896692,0.5832966303320176,0.28860155,0.5991930320020039
0.0075,1.79859375,1.0,975.1333137522128,0.08215419155891394,1.3530719979109858,0.6134394423973094,0.2885939375,0.6024877687855386
0.008,1.7984,1.0,1061.7588751865371,0.08730258096613061,1.351695172121258,0.6408281634205625,0.2885858,0.6055819703654295
0.0085,1.79819375,1.0,1146.1650800765995,0.0924220918127266,1.3503954248670864,0.6657042511363886,0.2885771375,0.6084918566078252
0.009000000000000001,1.797975,1.0,1228.1242428953783,0.09751288606268904,1.3491668443883507,0.6883029018979228,0.28856795,0.6112325088644175
0.0095,1.79774375,1.0,1307.4866934567315,0.10257512534747591,1.3480038151237088,0.7088463098912925,0.2885582375,0.6138180633269882
0.01,1.7975,1.0,1384.1223500243796,0.10760896942129401,1.346901598291212,0.727540484174217,0.288548,0.616260462700901
0.0105,1.79724375,1.0,1457.948834230962,0.11261457738388045,1.345855763740634,0.744573533030922,0.2885372375,0.6185707611204805
0.011,1.796975,1.0,1528.930870308948,0.11759210769982746,1.3448620792041113,0.7601155415135257,0.28852595000000003,0.6207593951754378
0.0115,1.79669375,1.0,1597.0685176686873,0.12254171859620938,1.3439165589683137,0.774319317857376,0.2885141375,0.6228360984291913
0.012,1.7964,1.0,1662.3512225793559,0.127463565871056,1.3430159137142548,0.7873217313191584,0.28850180000000003,0.6248089379425221
0.0125,1.79609375,1.0,1724.8053696336128,0.13235780518184348,1.3421568907398342,0.7992447535035105,0.2884889375,0.6266857848190343
0.013000000000000001,1.7957750000000001,1.0,1784.471581048055,0.1372245912979818,1.341336485995402,0.8101969714642112,0.28847555,0.6284738626540521
0.0135,1.79544375,1.0,1841.4339707751878,0.14206407958904008,1.3405515645326394,0.8202748282530833,0.2884616375,0.6301805863978687
0.014,1.7951000000000001,1.0,1895.738314329356,0.1468764222054581,1.3397997313907206,0.8295642718933407,0.2884472,0.6318116790395221
0.0145,1.79474375,1.0,1947.4434430585916,0.15166177085824642,1.3390786994222441,0.8381417036115658,0.2884322375,0.6333725624940033
0.015,1.794375,1.0,1996.6287667720183,0.15642027725841562,1.338386181479809,0.8460750448483706,0.28841675,0.6348685975239596
0.0155,1.79399375,1.0,2043.3757544382274,0.161152091931034,1.3377200661619797,0.8534247885006506,0.2884007375,0.6363047095393752
0.016,1.7936,1.0,2087.785715196328,0.1658573659279951,1.3370782062141369,0.8602448095418199,0.2883842,0.6376858510697061
0.0165,1.7931937500000001,1.0,2129.9258759408162,0.17053624699886746,1.3364589602291532,0.8665833091011208,0.2883671375,0.6390158420966744
0.017,1.792775,1.0,2169.872646182868,0.1751888827066038,1.3358607141659145,0.8724833417813552,0.28834955,0.6402984077804907
0.0175,1.7923437500000001,1.0,2207.71321063153,0.17981542061415678,1.335281853983307,0.8779834154697206,0.2883314375,0.6415372397624888
0.018000000000000002,1.7919,1.0,2243.527895245037,0.1844160066306573,1.3347209331651604,0.8831180686892126,0.2883128,0.6427356406283299
0.0185,1.79144375,1.0,2277.4223105810906,0.18899078859766927,1.3341763379786546,0.887918247332884,0.2882936375,0.6438972421402296
0.019,1.790975,1.0,2309.4631467191543,0.1935399098283345,1.3336469205058403,0.892411875009926,0.28827395,0.6450246570056424
0.0195,1.79049375,1.0,2339.721574000979,0.19806351346453693,1.3331315499824228,0.8966240879756113,0.2882537375,0.6461204413466473
0.02,1.79,1.0,2368.274432390304,0.20256174264816063,1.3326290956441065,0.9005775467604539,0.288233,0.6471871324329843
0.0205,1.78949375,1.0,2395.199703696638,0.2070347398500362,1.3321384660077398,0.904292721804044,0.2882117375,0.6482271664477854
0.021,1.788975,1.0,2420.5748450471506,0.21148264724982827,1.3316586195696631,0.9077881381177065,0.28818995000000003,0.6492428573505914
0.021500000000000002,1.78844375,1.0,2444.4777806154893,0.2159056071053878,1.3311885501211664,0.9110805845980162,0.2881676375,0.65023642942806
0.022,1.7879,1.0,2466.966356914185,0.22030375774407768,1.33072747885787,0.9141853378160858,0.2881448,0.6512096132918277
0.0225,1.78734375,1.0,2488.101387110912,0.22467723749326082,1.3302746269753938,0.9171162785989356,0.28812143749999997,0.6521641287508435
0.023,1.786775,1.0,2507.9464049014978,0.2290261846803001,1.3298292156693583,0.9198860388706465,0.28809755,0.653101685238954
0.0235,1.78619375,1.0,2526.5674318312563,0.2333507376325583,1.3293904661353837,0.9225061313064389,0.28807313749999996,0.6540239822038094
0.024,1.7856,1.0,2544.020430675471,0.23765103144247615,1.3289577156331194,0.9249870832730163,0.2880482,0.6549324659612238
0.0245,1.78499375,1.0,2560.3766509008587,0.24192720690879457,1.3285301758300978,0.9273384978663944,0.2880227375,0.6558288379114956
0.025,1.784375,1.0,2575.682596906981,0.24617939762369,1.3281073076961711,0.9295692043189644,0.28799675,0.656714268610874
0.025500000000000002,1.78374375,1.0,2589.9842641402843,0.25040773662026894,1.3276885901907642,0.9316872974839135,0.2879702375,0.6575898847537927
0.026000000000000002,1.7831000000000001,1.0,2603.328927061646,0.2546123569316377,1.3272735022733015,0.9337002063621066,0.2879432,0.6584568071102274
0.0265,1.78244375,1.0,2615.7650289920534,0.25879339159090264,1.3268615229032075,0.9356147578511027,0.2879156375,0.6593161506549616
0.027,1.781775,1.0,2627.3420779783764,0.26295097363117037,1.3264521310399067,0.9374372336133697,0.28788755,0.6601690246795395
0.0275,1.7810937500000001,1.0,2638.1005070379915,0.2670852326493082,1.326044898485131,0.9391734333940606,0.2878589375,0.6610163398336117
0.028,1.7804,1.0,2648.090255938946,0.27119630370708714,1.3256393166782148,0.9408286972255491,0.2878298,0.6618591691114329
0.0285,1.77969375,1.0,2657.3532954495945,0.2752843180429077,1.325234957722796,0.9424079666829797,0.2878001375,0.6626984128668723
0.029,1.778975,1.0,2665.9217640080087,0.2793494027649061,1.3248314901441698,0.9439158224224988,0.28776995,0.6635347672535654
0.029500000000000002,1.7782437500000001,1.0,2673.8283259534646,0.28339168498121864,1.324428582467632,0.9453565041630487,0.2877392375,0.6643689249937592
0.03,1.7775,1.0,2681.106124705973,0.2874112917999814,1.324025903218478,0.9467339404184345,0.287708,0.6652015753936529
0.0305,1.77674375,1.0,2687.788738381169,0.2914083503293308,1.3236231209220035,0.948051775283763,0.2876762375,0.6660334043517293
0.031,1.775975,1.0,2693.9101378420582,0.29538298767740295,1.3232199041035038,0.9493133926000855,0.28764395,0.6668650943600825
0.0315,1.7751937500000001,1.0,2699.5046471860173,0.2993353309523341,1.3228159212882746,0.950521937782279,0.2876111375,0.6676973244987324
0.032,1.7744,1.0,2704.599569274806,0.30326550181628636,1.3224109080020146,0.9516803440565216,0.2875778,0.6685306326572593
0.0325,1.77359375,1.0,2709.2287744030928,0.3071736316949511,1.3220045421911422,0.9527913393698292,0.2875439375,0.6693656722202581
0.033,1.772775,1.0,2713.4139542565495,0.31105984213478927,1.321596615104086,0.9538574772308838,0.28750955,0.6702028608214103
0.0335,1.7719437500000002,1.0,2717.176478003438,0.3149242542351883,1.321186922617186,0.9548811407315551,0.2874746375,0.6710426043995594
0.034,1.7711000000000001,1.0,2720.53788061107,0.31876698909553575,1.3207752606067806,0.9558645555719691,0.2874392,0.6718853067048851
0.0345,1.7702437500000001,1.0,2723.5198457490224,0.3225881678152191,1.3203614249492093,0.956809802308933,0.2874032375,0.6727313692745924
0.035,1.7693750000000001,1.0,2726.144189615808,0.32638791149362584,1.3199452115208112,0.9577188275145351,0.28736675,0.6735811914059419
0.035500000000000004,1.76849375,1.0,2728.4328456901344,0.3301663412301435,1.3195264161979252,0.958593453953281,0.2873297375,0.6744351701266271
0.036000000000000004,1.7676,1.0,2730.401649402951,0.33392357175755466,1.3191048912123158,0.9594353942038462,0.2872922,0.6752935854731381
0.0365,1.76669375,1.0,2732.0707282058825,0.3376597234819236,1.3186804505457874,0.9602462519718218,0.2872541375,0.6761567934946873
0.037,1.765775,1.0,2733.469326030582,0.34137492771352196,1.3182528260734097,0.9610275268409274,0.28721555,0.6770253147203064
0.0375,1.76484375,1.0,2734.6097580988226,0.34506929830005095,1.3178219040700725,0.9617806388188779,0.2871764375,0.6778993536137552
0.038,1.7639,1.0,2735.504387949734,0.3487429490892117,1.3173875708106653,0.9625069228586818,0.28713679999999997,0.6787791131852836
0.0385,1.76294375,1.0,2736.1656216641904,0.35239599392870546,1.316949712570078,0.9632076348819776,0.28709663750000003,0.6796647949672989
0.039,1.761975,1.0,2736.6059023748326,0.3560285466662334,1.3165082156232002,0.9638839573128712,0.28705595,0.6805565989892151
0.0395,1.7609937500000001,1.0,2736.8377050643226,0.35964072114949663,1.3160629662449215,0.9645370041668959,0.2870147375,0.6814547237514721
0.04,1.76,1.0,2736.87353164874,0.3632326312261964,1.315613850710132,0.9651678257352363,0.286973,0.6823593661987324
0.0405,1.7589937500000001,1.0,2736.7259063492133,0.3668043907440339,1.3151607552937212,0.9657774129003597,0.2869307375,0.683270721692255
0.041,1.757975,1.0,2736.4073713490184,0.37035611355071035,1.3147035662705788,0.9663667011156345,0.28688795,0.6841889839814395
0.0415,1.75694375,1.0,2735.9304827384162,0.37388791349392686,1.3142421699155946,0.9669365740783319,0.2868446375,0.685114345174549
0.042,1.7559,1.0,2735.3078067456263,0.3773999044213846,1.3137764525036584,0.9674878671225717,0.28680079999999997,0.6860469957086079
0.0425,1.75484375,1.0,2734.534876150843,0.3808921978947863,1.31330645505487,0.9680213827192008,0.2867564375,0.6869868151178274
0.043000000000000003,1.753775,1.0,2733.656587845099,0.3843649034839865,1.3128317703610033,0.9685378436400507,0.28671155,0.6879345773367364
0.043500000000000004,1.75269375,1.0,2732.6673845549744,0.3878181301752307,1.3123524493679617,0.9690379710260453,0.28666613750000003,0.6888901383094226
0.044,1.75160121370294,1.0,2731.6109264831166,0.3912519865851258,1.3118686440445528,0.9695224560139314,0.28662025097552346,0.6898531532583291
0.0445,1.750506722112284,1.0,2730.9342387168567,0.39466658133027854,1.311380506359585,0.9699919537561313,0.28657428232871596,0.6908232788879098
0.045,1.749412230521628,1.0,2730.7181895812596,0.39806202267913904,1.3108881831628594,0.9704470852095299,0.28652831368190834,0.691800183576838
0.0455,1.7483177389309719,1.0,2730.924498699616,0.4014384185645088,1.3103920218198641,0.9708884547202903,0.28648234503510084,0.6927831402760746
0.046,1.7472232473403158,1.0,2731.5120836821734,0.40479587631684927,1.3098923960499225,0.9713166379356989,0.2864363763882933,0.6937713739491007
0.0465,1.7461287557496599,1.0,2732.452921839411,0.4081345012357065,1.3093895615480986,0.9717321727670636,0.2863904077414857,0.6947643469549596
0.047,1.7450342641590038,1.0,2733.7190433640876,0.41145439862062655,1.3088837740094568,0.9721355705204845,0.28634443909467816,0.6957615247247284
0.0475,1.7439397725683476,1.0,2735.2825138653275,0.41475567377115546,1.3083752891290614,0.9725273174700171,0.2862984704478706,0.6967623758117595
0.048,1.7428452809776915,1.0,2737.118063578688,0.41803843107683125,1.3078643385913447,0.972907874521205,0.28625250180106304,0.6977664190807203
0.0485,1.7417507893870354,1.0,2739.2000794442724,0.421302775628296,1.3073511572759313,0.9732776807859136,0.2862065331542555,0.6987731700291637
0.049,1.7406562977963795,1.0,2741.5093776165368,0.42454881003323636,1.3068359217168393,0.9736371502282443,0.2861605645074479,0.699782261301587
0.0495,1.7395618062057234,1.0,2744.0280874633195,0.4277766363754379,1.306318796515441,0.9739866765041666,0.28611459586064036,0.7007933510884305
0.05,1.7384673146150673,1.0,2746.738330202947,0.43098635673868624,1.3057999462731087,0.9743266349689665,0.2860686272138328,0.7018060996790938
0.0505,1.7373728230244112,1.0,2749.6251350902317,0.4341780711205521,1.3052795091216287,0.9746573817130855,0.28602265856702525,0.7028202210154892
0.051000000000000004,1.736278331433755,1.0,2752.674200228248,0.43735187947549414,1.304757617009684,0.9749792561941538,0.28597668992021774,0.7038354428398559
0.051500000000000004,1.7351838398430992,1.0,2755.86013482184,0.44050789071741364,1.3042345020397383,0.9752925899805426,0.2859307212734102,0.704851300282629
0.052000000000000005,1.734089348252443,1.0,2759.1740175685413,0.44364620213674055,1.3037102469856394,0.9755976890221821,0.2858847526266026,0.7058676207778122
0.0525,1.732994856661787,1.0,2762.606914245556,0.44676691102390476,1.3031849346212343,0.9758948457372887,0.28583878397979506,0.7068842328402993
0.053,1.7319003650711309,1.0,2766.1498756932115,0.44987011466933624,1.3026586477203703,0.9761843397298028,0.2857928153329875,0.7079009660716734
0.0535,1.730805873480475,1.0,2769.7939359507413,0.4529559103634649,1.3021314690568944,0.9764664384628828,0.28574684668617994,0.7089176511655704
0.054,1.7297113818898189,1.0,2773.530110543621,0.4560243953967206,1.3016034814046542,0.9767413978915047,0.2857008780393724,0.7099341199126034
0.0545,1.7286168902991628,1.0,2777.3493949229714,0.45907566705953334,1.3010747675374965,0.9770094630569639,0.2856549093925648,0.7109502052048547
0.055,1.7275223987085067,1.0,2781.242763056841,0.46210982264233297,1.3005454102292688,0.9772708686458839,0.28560894074575727,0.7119657410399252
0.0555,1.7264279071178508,1.0,2785.2011661734264,0.46512695943554944,1.3000154922538183,0.9775258395161224,0.28556297209894976,0.7129805625245507
0.056,1.7253334155271947,1.0,2789.22135744229,0.46812716545905236,1.2994850440007497,0.9777745872809334,0.28551700345214215,0.7139946059307047
0.0565,1.7242389239365385,1.0,2793.2925467046443,0.47111054528407825,1.2989541635680568,0.9780173202809911,0.28547103480533464,0.7150076788435062
0.057,1.7231444323458824,1.0,2797.4070947273203,0.4740771975651965,1.2984229204899462,0.9782542361814386,0.28542506615852703,0.7160196445352399
0.0575,1.7220499407552263,1.0,2801.561710449892,0.4770272133038792,1.297891345093464,0.9784855217631038,0.2853790975117195,0.7170304417041033
0.058,1.7209554491645704,1.0,2805.753093563525,0.4799606835015983,1.2973594677056555,0.9787113563329976,0.28533312886491197,0.7180400094572998
0.0585,1.7198609575739143,1.0,2809.9779342984575,0.4828776991598259,1.2968273186535668,0.9789319120837211,0.2852871602181044,0.7190482873116515
0.059000000000000004,1.7187664659832582,1.0,2814.2329132310024,0.48577835128003394,1.296294928264244,0.9791473544328579,0.28524119157129685,0.7200552151941535
0.059500000000000004,1.717671974392602,1.0,2818.514701110912,0.4886627308636945,1.2957623268647325,0.9793578423436057,0.2851952229244893,0.7210607334424718
0.06,1.7165774828019462,1.0,2822.819958709466,0.49153092891227945,1.2952295447820783,0.9795635286278315,0.28514925427768173,0.722064782805379
0.0605,1.71548299121129,1.0,2827.1453366876513,0.494383036427261,1.2946966123433272,0.9797645602326344,0.28510328563087417,0.7230673044431337
0.061,1.714388499620634,1.0,2831.487475485001,0.49721914441011106,1.294163559875525,0.979961078511442,0.2850573169840666,0.7240682399278011
0.0615,1.7132940080299779,1.0,2835.843005228591,0.5000393438623016,1.2936304177057176,0.9801532194805804,0.28501134833725905,0.7250675312435133
0.062,1.712199516439322,1.0,2840.2085456625623,0.5028437257853048,1.2930972161609509,0.9803411140622046,0.28496537969045155,0.7260651207866736
0.0625,1.711105024848666,1.0,2844.5858920788737,0.505632356989681,1.292563939393051,0.9805248841186344,0.28491941104364393,0.7270610375217448
0.063,1.7100105332580098,1.0,2848.9678871207834,0.5084053562328084,1.292030651254551,0.9807046549707846,0.28487344239683643,0.7280551617597029
0.0635,1.7089160416673537,1.0,2853.352746502308,0.511162812008422,1.2914973676342612,0.9808805426800087,0.28482747375002887,0.7290474638466085
0.064,1.7078215500766976,1.0,2857.7395867428263,0.5139048080435247,1.2909640963700244,0.981052658352478,0.2847815051032213,0.7300379292843595
0.0645,1.7067270584860417,1.0,2862.1275216526483,0.5166314280651194,1.2904308452996838,0.9812211091030335,0.28473553645641375,0.7310265436814769
0.065,1.7056325668953856,1.0,2866.515662335676,0.5193427558002093,1.289897622261082,0.9813859982279619,0.2846895678096062,0.7320132927530962
0.0655,1.7045380753047294,1.0,2870.903117193831,0.522038874975797,1.289364435092062,0.9815474253690922,0.28464359916279863,0.7329981623209563
0.066,1.7034435837140733,1.0,2875.2889919322665,0.5247198693188857,1.2888312916304663,0.9817054866697063,0.2845976305159911,0.7339811383133819
0.0665,1.7023490921234172,1.0,2879.672389566723,0.5273858225564783,1.2882981997141378,0.9818602749227233,0.2845516618691835,0.734962206765265
0.067,1.7012546005327613,1.0,2884.0524104313645,0.5300368184155775,1.2877651671809198,0.9820118797116032,0.28450569322237595,0.7359413538180397
0.0675,1.7001601089421052,1.0,2888.4281521887883,0.5326729406231865,1.2872322018686548,0.9821603875443616,0.28445972457556845,0.7369185657196566
0.068,1.6990656173514491,1.0,2892.798709840621,0.5352942729063082,1.2866993116151855,0.9823058819810937,0.28441375592876084,0.7378938288245497
0.0685,1.697971125760793,1.0,2897.163175740488,0.5379008989919454,1.2861665042583548,0.9824484437553522,0.28436778728195333,0.7388671295936002
0.069,1.6968766341701371,1.0,2901.520639606928,0.5404929026071011,1.2856337876360058,0.9825881508897228,0.2843218186351458,0.7398384545940981
0.0695,1.695782142579481,1.0,2905.870188539255,0.5430703674787785,1.285101169585981,0.9827250788059116,0.2842758499883382,0.7408077904996992
0.07,1.694687650988825,1.0,2910.2109070335373,0.5456333773339801,1.2845686579461235,0.9828593004296391,0.28422988134153065,0.7417751240903767
0.07050000000000001,1.6935931593981688,1.0,2914.5434539514263,0.548181984300192,1.2840362466828747,0.9829908837423715,0.2841839126947231,0.7427404673797995
0.07100000000000001,1.692498667807513,1.0,2918.8665822639264,0.5507162969142502,1.2835039465336646,0.9831198986754204,0.28413794404791554,0.7437038019765212
0.07150000000000001,1.6914041762168568,1.0,2923.179312827317,0.5532364111170263,1.2829717658518787,0.9832464120185932,0.284091975401108,0.7446651139370841
0.07200000000000001,1.6903096846262007,1.0,2927.48153698222,0.5557424024454972,1.2824397053269185,0.9833704868671079,0.2840460067543004,0.7456244032361079
