Time [s],Phi [rad],STIM [ ],Fsee [N],Gamma [ ],Lcerel [ ],q [ ],Lmtc [m],fisomrel [ ]
0.0,1.8,1.0,18.081444999152563,0.00034487468189558243,1.3793269625690725,0.0050308238692920735,0.288653,0.5411704574876323
0.0005,1.79999375,1.0,18.498213611650794,0.005952149516507713,1.3792778609205198,0.013896299591341501,0.2886527375,0.5412892353812335
0.001,1.799975,1.0,22.08842769203041,0.011527971972663387,1.378890551980327,0.0373749368379964,0.28865195,0.5422256046557499
0.0015,1.79994375,1.0,32.08120122752653,0.017072518474343087,1.3779606786025886,0.07300562780525446,0.2886506375,0.5444697877240776
0.002,1.7999,1.0,55.66978430115217,0.022585964453658274,1.376234005956963,0.11755587047048277,0.2886488,0.548622362122372
0.0025,1.79984375,1.0,100.55002162778223,0.028068484360123262,1.3737712665460333,0.1676565289031385,0.28864643749999996,0.5545122458691776
0.003,1.7997750000000001,1.0,165.372925860959,0.033520251665773035,1.3710502129552304,0.2204559582887344,0.28864354999999997,0.5609749345212951
0.0035,1.79969375,1.0,242.6441774582938,0.03894143886703474,1.3684327161770389,0.27376872055840923,0.2886401375,0.5671471098546222
0.004,1.7996,1.0,326.72871838699643,0.044332217494661354,1.3660172892134623,0.32596969173971424,0.2886362,0.5728040306021323
0.0045000000000000005,1.7994937500000001,1.0,414.7060462232666,0.04969275811923661,1.3637955779235325,0.37593218676861745,0.2886317375,0.5779744179951628
0.005,1.799375,1.0,504.9539219492835,0.0550232303425718,1.3617409336594273,0.42295761158923645,0.28862675,0.5827279876122635
0.0055,1.79924375,1.0,596.3741943696145,0.06032380283623108,1.3598299981314734,0.46668231373119057,0.2886212375,0.5871249121323464
0.006,1.7991000000000001,1.0,688.1021468174325,0.06559464330904752,1.3580451185582116,0.5069850236119763,0.2886152,0.5912107559841715
0.006500000000000001,1.79894375,1.0,779.4264244416696,0.07083591851432439,1.356372762949144,0.5439081693837253,0.2886086375,0.5950205798086519
0.007,1.798775,1.0,869.7625051540551,0.0760477943650454,1.354802068542934,0.5775971593582809,0.28860155,0.5985825642782371
0.0075,1.79859375,1.0,958.6203551416819,0.08123043559295957,1.3533241895310864,0.6082564998100533,0.2885939375,0.6019196973603347
0.008,1.7984,1.0,1045.6263754893287,0.0863840064726771,1.3519311847569044,0.6361189806936188,0.2885858,0.6050524272818929
0.0085,1.79819375,1.0,1130.4605015424931,0.09150866983126789,1.350616472281363,0.6614259886054102,0.2885771375,0.6079977339444269
0.009000000000000001,1.797975,1.0,1212.879220002332,0.09660458767245354,1.3493740723601673,0.6844144420365718,0.28856795,0.6107709105946193
0.0095,1.79774375,1.0,1292.7216538470461,0.10167192176069315,1.348198277088151,0.705309163983307,0.2885582375,0.6133863515077906
0.01,1.7975,1.0,1369.8519456012075,0.10671083210976257,1.3470842232679052,0.7243192194779937,0.288548,0.6158563200207747
0.0105,1.79724375,1.0,1444.1816411341379,0.11172147791745782,1.3460273926862698,0.7416359268330829,0.2885372375,0.6181921030317029
0.011,1.796975,1.0,1515.6687994531464,0.11670401775136656,1.3450234963454877,0.7574325404902805,0.28852595000000003,0.620404295183467
0.0115,1.79669375,1.0,1584.3106618480567,0.12165861015415108,1.3440684643713945,0.7718648588895928,0.2885141375,0.6225028438300716
0.012,1.7964,1.0,1650.0939381167825,0.1265854110482975,1.3431589423630648,0.7850725284287214,0.28850180000000003,0.6244959830237973
0.0125,1.79609375,1.0,1713.0410395994197,0.13148457611164074,1.3422916401820686,0.7971800610766755,0.2884889375,0.6263916870582567
0.013000000000000001,1.7957750000000001,1.0,1773.196277094891,0.13635626035380177,1.3414634406064514,0.8082983019309844,0.28847555,0.6281974449273101
0.0135,1.79544375,1.0,1830.6318212875174,0.14120061913000206,1.340671282077493,0.8185257848435792,0.2884616375,0.6299205279581541
0.014,1.7951000000000001,1.0,1885.3992115887236,0.14601780513253876,1.3399126523076366,0.8279502464588425,0.2884472,0.6315669285752161
0.0145,1.79474375,1.0,1937.5545775199973,0.15080797005506824,1.33918524950673,0.8366497092550774,0.2884322375,0.6331421126181674
0.015,1.794375,1.0,1987.1750443678422,0.15557126559124684,1.3384867718846216,0.8446935269979732,0.28841675,0.6346514836069137
0.0155,1.79399375,1.0,2034.3290601076103,0.16030784244152388,1.3378152108765862,0.8521434956160165,0.2884007375,0.6360997554222182
0.016,1.7936,1.0,2079.1504200306094,0.16501785191416737,1.337168046551442,0.8590544869570288,0.2883842,0.6374926925532037
0.0165,1.79319376281953,1.0,2121.694357858082,0.16970144213739063,1.3365437483360474,0.8654757330315588,0.2883671380384203,0.6388338821936327
0.017,1.7927818289363477,1.0,2162.305682743086,0.17435876059554517,1.335941007750465,0.8714512527933005,0.2883498368153266,0.640126400866078
0.0175,1.7923698950531652,1.0,2201.3009528906837,0.17898995477298246,1.335358516314758,0.8770204022240496,0.28833253559223293,0.6413732957116203
0.018000000000000002,1.791957961169983,1.0,2238.749972525477,0.18359517161775185,1.3347950374934734,0.8822184416703333,0.2883152343691393,0.6425774326203564
0.0185,1.7915460272868005,1.0,2274.703357226688,0.1881745574319967,1.3342495920355395,0.887077061570967,0.2882979331460456,0.6437411040308527
0.019,1.7911340934036182,1.0,2309.209368445377,0.19272825648631234,1.3337212769705216,0.8916247447771906,0.28828063192295195,0.6448664199526928
0.0195,1.7907221595204357,1.0,2342.319432793829,0.1972564125397716,1.3332092050089783,0.895887120451672,0.2882633306998583,0.6459554390857292
0.02,1.7903102256372534,1.0,2374.0798814193595,0.20175916724095513,1.3327125812720868,0.8998873046966847,0.28824602947676464,0.6470100072170442
0.0205,1.789898291754071,1.0,2404.556822096165,0.20623666602544163,1.3322304564743468,0.9036461304565392,0.28822872825367096,0.6480322824963238
0.021,1.7894863578708886,1.0,2433.8087133024287,0.2106890523158792,1.3317619930232836,0.9071824564631769,0.28821142703057734,0.6490241708712332
0.021500000000000002,1.789074423987706,1.0,2461.8756637590423,0.21511646484168884,1.3313065614113535,0.9105134012736207,0.28819412580748366,0.6499871248908962
0.022,1.7886624901045238,1.0,2488.8004530549947,0.21951904233229144,1.330863532131013,0.9136544902563283,0.28817682458439,0.6509225864342799
0.0225,1.7882505562213413,1.0,2514.628354153434,0.22389692351710813,1.330432275674718,0.9166198259005576,0.28815952336129635,0.6518319872207499
0.023,1.7878386223381588,1.0,2539.406964683272,0.2282502471255598,1.3300121625349248,0.9194222379401829,0.2881422221382027,0.652716749295352
0.0235,1.7874266884549765,1.0,2563.1860470178603,0.23257915188706743,1.3296025632040895,0.9220734158651582,0.288124920915109,0.6535782854888208
0.024,1.787014754571794,1.0,2586.00602953685,0.23688377323485973,1.3292029541430348,0.9245840435503078,0.28810761969201537,0.6544177773708513
0.0245,1.7866028206886118,1.0,2607.9203659691198,0.24116425149087167,1.3288127063045077,0.9269638675056677,0.2880903184689217,0.6552366204486786
0.025,1.7861908868054293,1.0,2628.9679503265766,0.24542072190745717,1.3284313416900815,0.9292218301099703,0.288073017245828,0.656035885827975
0.025500000000000002,1.785778952922247,1.0,2649.1810181615697,0.24965331720628386,1.3280584563956999,0.9313661365504388,0.2880557160227344,0.6568164833777765
0.026000000000000002,1.7853670190390645,1.0,2668.592968117667,0.25386217010901935,1.327693646517307,0.9334043153326048,0.2880384147996407,0.6575793177046882
0.0265,1.7849550851558822,1.0,2687.238287805057,0.2580474133373313,1.3273365081508461,0.9353432832411166,0.288021113576547,0.6583252883661066
0.027,1.7845431512726997,1.0,2705.152483291952,0.26220917961288714,1.3269866373922614,0.9371894032721874,0.2880038123534534,0.6590552900730287
0.0275,1.7841312173895174,1.0,2722.372012213563,0.2663476016573547,1.3266436303374962,0.9389485363736785,0.2879865111303597,0.6597702128824654
0.028,1.783719283506335,1.0,2738.9236835256697,0.2704628075473594,1.3263071786945897,0.9406260998816074,0.28796920990726604,0.6604707434068148
0.0285,1.7833073496231526,1.0,2754.8495190988237,0.2745549336526559,1.3259768429195298,0.9422270801467916,0.2879519086841724,0.6611578376282405
0.029,1.7828954157399701,1.0,2770.176996270424,0.27862410907973595,1.3256523221296415,0.9437561033641424,0.28793460746107874,0.6618321590930237
0.029500000000000002,1.7824834818567878,1.0,2784.928838521419,0.2826704603899657,1.325333363641719,0.9452174564891986,0.28791730623798506,0.6624942681810109
0.03,1.7820715479736053,1.0,2799.1282793726937,0.28669411414471135,1.325019714772557,0.9466151112433034,0.28790000501489144,0.6631447226057579
0.0305,1.781659614090423,1.0,2812.799031930584,0.29069519690533907,1.3247111228389494,0.9479527513088456,0.28788270379179776,0.6637840775021324
0.031,1.7812476802072406,1.0,2825.9652598485527,0.294673835233215,1.3244073351576908,0.9492337968570854,0.2878654025687041,0.6644128855098395
0.0315,1.7808357463240583,1.0,2838.651549704221,0.2986301556897053,1.3241080990455754,0.9504614266991768,0.28784810134561045,0.6650316968528811
0.032,1.7804238124408758,1.0,2850.8828847916243,0.3025642848361762,1.3238131618193971,0.9516385983164731,0.2878308001225168,0.6656410594149392
0.0325,1.7800118785576933,1.0,2862.6730602609045,0.3064763412731372,1.323522373399288,0.9527680758575158,0.2878134988994231,0.6662413071112616
0.033,1.779599944674511,1.0,2874.0556951371977,0.310366459897078,1.3232354103776462,0.9538524204359854,0.28779619767632947,0.666833129712993
0.0335,1.7791880107913285,1.0,2885.0465773883,0.31423476163201935,1.3229521104649271,0.954894036266618,0.2877788964532358,0.6674168824816631
0.034,1.7787760769081462,1.0,2895.6604741133096,0.31808136645697516,1.32267232242758,0.955895169631539,0.2877615952301421,0.6679928964897699
0.0345,1.7783641430249637,1.0,2905.9123625960533,0.3219063943509596,1.3223958950320547,0.9568579202176578,0.2877442940070485,0.6685615014875013
0.035,1.7779522091417814,1.0,2915.8174187830496,0.32570996529298657,1.3221226770448,0.9577842524062313,0.2877269927839548,0.6691230259358785
0.035500000000000004,1.777540275258599,1.0,2925.391006268839,0.3294921992620702,1.3218525172322657,0.9586760055678666,0.2877096915608611,0.6696777970384378
0.036000000000000004,1.7771283413754166,1.0,2934.648665788147,0.3332532162372245,1.321585264360901,0.9595349034609363,0.2876923903377675,0.6702261407714587
0.0365,1.7767164074922341,1.0,2943.606105214659,0.33699313619746346,1.3213207671971552,0.960362562820783,0.2876750891146738,0.6707683819127284
0.037,1.7763044736090519,1.0,2952.2791900679586,0.34071207912180124,1.3210588745074778,0.9611605012177157,0.28765778789158014,0.6713048440688507
0.0375,1.7758925397258694,1.0,2960.6736966016047,0.3444101530317013,1.3207995244101958,0.9619301503755737,0.2876404866684865,0.6718356668947456
0.038,1.775480605842687,1.0,2968.814133189578,0.3480874915515135,1.3205424924938454,0.962672846113373,0.28762318544539284,0.6723613217660493
0.0385,1.7750686719595046,1.0,2976.7098395893586,0.3517442083193551,1.320287687936553,0.9633898536081119,0.28760588422229916,0.67288200560031
0.039,1.7746567380763223,1.0,2984.369648014042,0.3553804162121126,1.320035025104759,0.9640823643531852,0.28758858299920553,0.6733979040376157
0.0395,1.7742448041931398,1.0,2991.802472616917,0.3589962281066726,1.3197844183649037,0.9647515009436634,0.28757128177611185,0.6739092020759574
0.04,1.7738328703099575,1.0,2999.017305507007,0.3625917568799216,1.3195357820834273,0.9653983217990971,0.28755398055301823,0.6744160840826929
0.0405,1.773420936426775,1.0,3006.023212925998,0.36616711540874625,1.31928903062677,0.966023825514317,0.28753667932992455,0.6749187338055407
0.041,1.7730090025435927,1.0,3012.82933158885,0.369722416570033,1.3190440783613722,0.9666289548711489,0.2875193781068309,0.6754173343831078
0.0415,1.7725970686604102,1.0,3019.444865186101,0.3732577732406685,1.318800839653674,0.9672146005407497,0.28750207688373725,0.6759120683549507
0.042,1.772185134777228,1.0,3025.879081049516,0.37677329829753925,1.3185592288701156,0.967781604503396,0.28748477566064357,0.676403117671165
0.0425,1.7717732008940454,1.0,3032.1413069799055,0.38026910461753183,1.3183191603771374,0.9683307632099748,0.2874674744375499,0.6768906637015124
0.043000000000000003,1.771361267010863,1.0,3038.236217464408,0.3837452945537927,1.3180805891264653,0.9688628321035555,0.2874501732144562,0.677374804913778
0.043500000000000004,1.7709493331276807,1.0,3044.174038256962,0.3872019862436307,1.317843422601566,0.9693785253651573,0.2874328719913626,0.6778557356789614
0.044,1.7705373992444982,1.0,3049.965136636512,0.3906392979733838,1.3176075675476802,0.9698785197105376,0.2874155707682689,0.6783336512641767
0.0445,1.7701254653613159,1.0,3055.6143521474232,0.3940573349120986,1.3173729786552635,0.9703634585084471,0.2873982695451753,0.6788086492968293
0.045,1.7697135314781334,1.0,3061.126554766837,0.3974562022288213,1.3171396106147715,0.9708339521565014,0.2873809683220816,0.6792808271017574
0.0455,1.769301597594951,1.0,3066.5066436558823,0.4008360050925982,1.3169074181166598,0.9712905800917192,0.287363667098988,0.6797502817048233
0.046,1.7688896637117686,1.0,3071.7595459556082,0.40419684867247585,1.3166763558513843,0.9717338926596965,0.2873463658758943,0.6802171098363757
0.0465,1.7684777298285863,1.0,3076.890215629024,0.40753883813750047,1.3164463785094003,0.9721644128536143,0.2873290646528006,0.6806814079345835
0.047,1.7680657959454038,1.0,3081.903632348623,0.41086207865671853,1.3162174407811635,0.9725826379333143,0.287311763429707,0.6811432721486331
0.0475,1.7676538620622215,1.0,3086.8048004286866,0.4141666753991763,1.3159894973571298,0.9729890409337637,0.2872944622066133,0.6816027983418
0.048,1.767241928179039,1.0,3091.5987478042625,0.41745273353392015,1.3157625029277547,0.9733840720714442,0.28727716098351963,0.682060082094387
0.0485,1.7668299942958567,1.0,3096.29052505482,0.4207203582299965,1.3155364121834936,0.9737681600564584,0.287259859760426,0.682515218706532
0.049,1.7664180604126742,1.0,3100.8852044734535,0.4239696546564517,1.3153111798148023,0.9741417133174921,0.2872425585373323,0.6829683032008846
0.0495,1.766006126529492,1.0,3105.3863673044207,0.42720072093533495,1.3150867733960023,0.9745051211797191,0.28722525731423865,0.683419404435256
0.05,1.7655941926463095,1.0,3109.79420428813,0.43041364261903753,1.3148631895076408,0.9748587553858461,0.287207956091145,0.6838685328223071
0.0505,1.7651822587631272,1.0,3114.1201068686596,0.4336085595010176,1.3146403294624436,0.9752029705566085,0.28719065486805134,0.6843158899099648
0.051000000000000004,1.7647703248799447,1.0,3118.36642752163,0.4367855679962706,1.3144181717471697,0.9755381052143647,0.28717335364495766,0.6847615219233651
0.051500000000000004,1.7643583909967624,1.0,3122.535528963533,0.4399447645197917,1.314196694848578,0.9758644826313109,0.28715605242186404,0.6852054749560893
0.052000000000000005,1.76394645711358,1.0,3126.629783821792,0.4430862454865762,1.3139758772534273,0.9761824116498578,0.28713875119877036,0.685647794971112
0.0525,1.7635345232303976,1.0,3130.6515743155423,0.4462101073116194,1.3137556974484772,0.9764921874519722,0.2871214499756767,0.6860885278017208
0.053,1.763122589347215,1.0,3134.6032919460436,0.4493164464099167,1.3135361339204865,0.9767940922810705,0.28710414875258305,0.6865277191524067
0.0535,1.7627106554640326,1.0,3138.487337197451,0.4524053591964633,1.3133171651562143,0.9770883961197773,0.2870868475294894,0.6869654145997243
0.054,1.7622987215808503,1.0,3142.3061192484565,0.4554769420862545,1.3130987696424194,0.9773753573265962,0.2870695463063957,0.6874016595931223
0.0545,1.7618867876976678,1.0,3146.062055693231,0.4585312914942856,1.3128809258658614,0.9776552232343199,0.28705224508330207,0.6878364994557442
0.055,1.7614748538144855,1.0,3149.757572273375,0.461568503835552,1.3126636123132989,0.9779282307127742,0.2870349438602084,0.6882699793852014
0.0555,1.761062919931303,1.0,3153.3951026198447,0.4645886755250489,1.312446807471491,0.9781946066983046,0.2870176426371147,0.6887021444543145
0.056,1.7606509860481208,1.0,3156.977088005352,0.4675919029777716,1.312230489827197,0.9784545686922347,0.2870003414140211,0.6891330396118259
0.0565,1.7602390521649383,1.0,3160.5059771063575,0.4705782826087154,1.3120146378671758,0.9787083252303478,0.2869830401909274,0.6895627096830841
0.057,1.759827118281756,1.0,3163.9842257763794,0.4735479108328756,1.3117992300781862,0.9789560763253087,0.28696573896783373,0.6899911993706961
0.0575,1.7594151843985735,1.0,3167.414296828757,0.4765008840652476,1.3115842449469877,0.9791980138837839,0.2869484377447401,0.6904185532551518
0.058,1.7590032505153912,1.0,3170.797231603294,0.47943728421391324,1.311369673005154,0.9794343215316323,0.2869311365216464,0.6908447918771156
0.0585,1.7585913166322087,1.0,3174.1334494791554,0.4823571936779978,1.3111555100566714,0.9796651759279188,0.28691383529855274,0.6912699252594792
0.059000000000000004,1.7581793827490264,1.0,3177.4281257051603,0.4852607440547618,1.3109417118574456,0.9798907486549135,0.2868965340754591,0.6916940428162032
0.059500000000000004,1.757767448865844,1.0,3180.682317843351,0.4881480224629441,1.3107282689353223,0.9801112027597778,0.28687923285236544,0.6921171648101339
0.06,1.7573555149826616,1.0,3183.8970866130853,0.49101911602128334,1.3105151718181471,0.9803266949677124,0.28686193162927176,0.6925393114500847
0.0605,1.7569435810994791,1.0,3187.0734958171397,0.49387411184851837,1.3103024110337658,0.980537375975852,0.28684463040617814,0.6929605028910456
0.061,1.7565316472162968,1.0,3190.2126122700774,0.49671309706338795,1.3100899771100238,0.9807433907313146,0.28682732918308446,0.6933807592343906
0.0615,1.7561197133331143,1.0,3193.3155057286463,0.49953615878463076,1.3098778605747672,0.9809448786943759,0.2868100279599908,0.6938001005280776
0.062,1.755707779449932,1.0,3196.383248824447,0.5023433841309856,1.3096660519558412,0.9811419740876738,0.28679272673689715,0.694218546766844
0.0625,1.7552958455667496,1.0,3199.4169169976353,0.5051348602211913,1.3094545417810917,0.9813348061322784,0.2867754255138035,0.6946361178923934
0.063,1.754883911683567,1.0,3202.4175884337446,0.5079106741739863,1.3092433205783642,0.9815234992714205,0.2867581242907098,0.6950528337935812
0.0635,1.7544719778003848,1.0,3205.3863440020427,0.5106709131081096,1.3090323788755045,0.9817081733826026,0.28674082306761617,0.6954687143065901
0.064,1.7540600439172023,1.0,3208.3242671952316,0.5134156641423001,1.3088217072003585,0.9818889439787841,0.2867235218445225,0.6958837792151022
0.0645,1.75364811003402,1.0,3211.232444072635,0.5161450143952963,1.3086112960807714,0.9820659223992747,0.2867062206214288,0.696298048250467
0.065,1.7532361761508375,1.0,3214.111963203808,0.5188590509858368,1.308401136044589,0.982239215990936,0.2866889193983352,0.6967115410918587
0.0655,1.7528242422676552,1.0,3216.9639156149155,0.5215578610326608,1.3081912176196573,0.9824089282802485,0.2866716181752415,0.6971242773664319
0.066,1.7524123083844727,1.0,3219.789394737322,0.5242415316545067,1.3079815313338214,0.9825751591367696,0.2866543169521478,0.6975362766494718
0.0665,1.7520003745012904,1.0,3222.589496357519,0.5269101499701134,1.3077720677149276,0.9827380049284664,0.2866370157290542,0.6979475584645345
0.067,1.751588440618108,1.0,3225.3653185694784,0.5295638030982196,1.3075628172908211,0.9828975586693885,0.2866197145059605,0.6983581422835874
0.0675,1.7511765067349256,1.0,3228.1163791825825,0.5322025400335129,1.3073537838165847,0.9830539083710793,0.28660241328286684,0.6987680215995794
0.068,1.7507645728517431,1.0,3230.8437923681327,0.5348264585663963,1.3071449577064087,0.983207141488082,0.2865851120597732,0.6991772160571696
0.0685,1.7503526389685609,1.0,3233.5499055334053,0.5374356844732794,1.3069363190941539,0.9833573437309766,0.28656781083667954,0.6995857653728692
0.069,1.7499407050853784,1.0,3236.2351652096518,0.5400302950998992,1.3067278640169842,0.9835045956560271,0.28655050961358586,0.6999936780471253
0.0695,1.749528771202196,1.0,3238.9000189434705,0.5426103677919928,1.3065195885120635,0.9836489751277563,0.28653320839049223,0.7004009625586584
