Time [s],Phi [rad],STIM [ ],Fsee [N],Gamma [ ],Lcerel [ ],q [ ],Lmtc [m],fisomrel [ ]
0.0,1.8,1.0,17.96695922194796,1.0548656933761222e-05,1.3793397685083468,0.005000029644041033,0.288653,0.54113947713021
0.0005,1.79999375,1.0,18.27649433202536,0.005619698796105311,1.3793024155390765,0.012942038170322464,0.2886527375,0.541229839178003
0.001,1.799975,1.0,21.618533215217806,0.011197386037915515,1.3789382866241526,0.03561143866625374,0.28865195,0.5421102516911721
0.0015,1.79994375,1.0,31.070165131259106,0.01674378686520357,1.3780461245711382,0.07060562407913333,0.2886506375,0.5442638000533913
0.002,1.7999,1.0,53.58477815730075,0.022259076769156463,1.3763679766171875,0.11472247834545346,0.2886488,0.5483008487789677
0.0025,1.79984375,1.0,97.12316781930309,0.02774343025687656,1.3739349634198488,0.16457972350763703,0.28864643749999996,0.5541219487633813
0.003,1.7997750000000001,1.0,160.96392904636122,0.033197020859093866,1.371214128072618,0.2172854362919363,0.28864354999999997,0.5605869614773149
0.0035,1.79969375,1.0,237.68998458365198,0.038620021129761054,1.368584529303336,0.27061784277397666,0.2886401375,0.5667903212954024
0.004,1.7996,1.0,321.47396073417355,0.044012602656834814,1.3661559019776097,0.3229205979827379,0.2886362,0.5724804063997546
0.0045000000000000005,1.7994937500000001,1.0,409.27529670975014,0.04937493606746056,1.3639226370358788,0.3730390602455882,0.2886317375,0.5776795735103699
0.005,1.799375,1.0,499.4212749153706,0.054707191019064856,1.3618581772197142,0.42025172025030716,0.28862675,0.5824574603929397
0.0055,1.79924375,1.0,590.7983186319539,0.06000953624679295,1.3599386806624807,0.46417764227171415,0.2886212375,0.5868754660808442
0.006,1.7991000000000001,1.0,682.5260712575978,0.06528213950673332,1.3581462700029563,0.504683587204145,0.2886152,0.590979748989061
0.006500000000000001,1.79894375,1.0,773.8890105889981,0.07052516763213744,1.3564671212734547,0.5418040779722386,0.2886086375,0.5948060951881893
0.007,1.798775,1.0,864.2936382500616,0.07573878651304758,1.3548902685647755,0.5756798041312998,0.28860155,0.5983829632589973
0.0075,1.79859375,1.0,953.2506625226093,0.08092316111318035,1.3534066646470904,0.6065126692173827,0.2885939375,0.6017338309407494
0.008,1.7984,1.0,1040.3671292705496,0.08607845547015898,1.352008518627693,0.6345345497673838,0.2885858,0.6048788355023508
0.0085,1.79819375,1.0,1125.3267230447261,0.0912048327174976,1.3506890646082113,0.6599866685932495,0.2885771375,0.607835395294062
0.009000000000000001,1.797975,1.0,1207.8818181186718,0.0963024546790199,1.349442285952755,0.6831064552374835,0.28856795,0.6106189055743398
0.0095,1.79774375,1.0,1287.8763177734045,0.10137148342080812,1.3482623340440971,0.7041195215981405,0.2885582375,0.613244090198207
0.01,1.7975,1.0,1365.1786075136004,0.10641207936350251,1.3471442367248412,0.7232359107995137,0.288548,0.6157234659079318
0.0105,1.79724375,1.0,1439.6776119158044,0.11142440114135028,1.3460837196935282,0.7406481526351342,0.2885372375,0.6180677900608781
0.011,1.796975,1.0,1511.3258975894985,0.11640860738859862,1.3450765086487,0.7565305712042718,0.28852595000000003,0.6202876376875756
0.0115,1.79669375,1.0,1580.115656093421,0.1213648561799531,1.3441185470488277,0.771039977649616,0.2885141375,0.6223929387021803
0.012,1.7964,1.0,1646.0629057870262,0.12629330487708412,1.3432060959575094,0.7843167870225615,0.28850180000000003,0.6243927796479747
0.0125,1.79609375,1.0,1709.1771443046296,0.13119410874054865,1.342335998385371,0.7964864377462845,0.2884889375,0.626294847606796
0.013000000000000001,1.7957750000000001,1.0,1769.4950748833935,0.13606742268143163,1.3415052023468679,0.8076605799163329,0.28847555,0.6281064948023751
0.0135,1.79544375,1.0,1827.067691087274,0.14091340088117785,1.3407108599072424,0.8179385210255854,0.2884616375,0.6298345342514906
0.014,1.7951000000000001,1.0,1881.9794129582363,0.14573219781373753,1.3399500705445173,0.8274084637282763,0.2884472,0.6314858084718677
0.0145,1.79474375,1.0,1934.2846571841353,0.15052396508155638,1.33922054188526,0.8361489881225571,0.2884322375,0.6330657651883627
0.015,1.794375,1.0,1984.0493044994516,0.15528885385130284,1.3385200832957367,0.8442299748893122,0.28841675,0.6345795701704321
0.0155,1.79399375,1.0,2031.3561534229468,0.16002701509468287,1.3378465233091086,0.8517135945914687,0.2884007375,0.6360322917345279
0.016,1.7936,1.0,2076.2948811146025,0.16473859905883415,1.3371977961904176,0.8586552446693523,0.2883842,0.6374287188913446
0.0165,1.7931937500000001,1.0,2118.9532884044825,0.16942375566790083,1.336572011279598,0.865104371920764,0.2883671375,0.6387732181862441
0.017,1.792775,1.0,2159.4016330853915,0.1740826320209495,1.3359675910652302,0.8711052116598663,0.28834955,0.6400694443680683
0.0175,1.7923437500000001,1.0,2197.721030139767,0.1787153752170467,1.335382958035895,0.8766973131210914,0.2883314375,0.6413210186833328
0.018000000000000002,1.7919,1.0,2233.9995418482094,0.183322131979979,1.3348165647493497,0.881916098337223,0.2883128,0.6425314667393001
0.0185,1.79144375,1.0,2268.3215306383618,0.18790304805091904,1.3342669902577549,0.8867933684360005,0.2882936375,0.6437040153827234
0.019,1.790975,1.0,2300.7841931214725,0.19245827074062924,1.3337327640859744,0.8913576790701924,0.28827395,0.6448419712230082
0.0195,1.79049375,1.0,2331.4521355652405,0.19698794244586929,1.3332128078751238,0.8956348153232879,0.2882537375,0.64594778274227
0.02,1.79,1.0,2360.395594185384,0.20149220556339878,1.332706043266319,0.8996480132147767,0.288233,0.6470238800193568
0.0205,1.78949375,1.0,2387.6899718893187,0.20597120248997744,1.3322113919006757,0.9034182459775503,0.2882117375,0.648072675674157
0.021,1.788975,1.0,2413.415400802145,0.2104250756223649,1.33172777541931,0.9069644752222915,0.28818995000000003,0.6490965657377419
0.021500000000000002,1.78844375,1.0,2437.6391521673595,0.21485396488473707,1.3312542806917775,0.9103039050647402,0.2881676375,0.650097581388307
0.022,1.7879,1.0,2460.4485631589873,0.2192580138336462,1.3307898370502629,0.9134521083188758,0.2881448,0.6510780730365451
0.0225,1.78734375,1.0,2481.901040065236,0.22363736046070448,1.3303336933286547,0.9164232918057916,0.28812143749999997,0.6520397036092166
0.023,1.786775,1.0,2502.052089202952,0.22799214200311027,1.3298851420927558,0.9192303873325134,0.28809755,0.6529840338853392
0.0235,1.78619375,1.0,2520.95962778842,0.2323224956980619,1.3294434759083689,0.9218851763541914,0.28807313749999996,0.6539126153744005
0.024,1.7856,1.0,2538.683781854261,0.23662855878275776,1.3290079873412972,0.9243984081945705,0.2880482,0.654826990642949
0.0245,1.78499375,1.0,2555.2849119126604,0.2409104680952147,1.3285779857107918,0.9267799074601993,0.2880227375,0.6557286585020368
0.025,1.784375,1.0,2570.8145772495195,0.2451683581386177,1.328152879779038,0.929038679746169,0.28799675,0.6566189014436359
0.025500000000000002,1.78374375,1.0,2585.3441418536963,0.24940236772273758,1.3277319076413752,0.9311829497510751,0.2879702375,0.657499351765769
0.026000000000000002,1.7831000000000001,1.0,2598.91492100572,0.25361262871404444,1.327314602099656,0.9332203090044929,0.2879432,0.6583710180240557
0.0265,1.78244375,1.0,2611.569350970476,0.2577992729790085,1.3269004959557338,0.9351577314177288,0.2879156375,0.6592349035200743
0.027,1.781775,1.0,2623.3508949616275,0.26196243238409983,1.3264891220114619,0.9370016318134301,0.28788755,0.6600920064036504
0.0275,1.7810937500000001,1.0,2634.303953944902,0.26610223879578854,1.3260800130686927,0.9387579181963039,0.2878589375,0.6609433197612283
0.028,1.7804,1.0,2644.4737822807715,0.2702188240805449,1.3256727019292802,0.9404320385017646,0.2878298,0.6617898316903132
0.0285,1.77969375,1.0,2653.901621610081,0.2743123172878022,1.3252667655187509,0.942029027702479,0.2878001375,0.6626324338296234
0.029,1.778975,1.0,2662.6296856193217,0.2783828515748669,1.3248617779618719,0.9435535408493693,0.28776995,0.6634720191946795
0.029500000000000002,1.7782437500000001,1.0,2670.691496381754,0.2824305547980882,1.3244573988177404,0.9450098952372284,0.2877392375,0.6643092995931944
0.03,1.7775,1.0,2678.11923241578,0.28645555349186164,1.3240533045044243,0.9464020920120826,0.287708,0.6651449484686317
0.0305,1.77674375,1.0,2684.9455106132727,0.29045797419058283,1.3236491714399914,0.9477338416913234,0.2876762375,0.6659796359254052
0.031,1.775975,1.0,2691.2033448570005,0.29443794342864726,1.3232446760425096,0.9490085889319098,0.28764395,0.666814028731419
0.0315,1.7751937500000001,1.0,2696.926106958973,0.2983955877404506,1.3228394947300466,0.9502295348966965,0.2876111375,0.6676487903139293
0.032,1.7744,1.0,2702.1382151661114,0.30233102839415343,1.3224333886503663,0.9513996662239392,0.2875778,0.6684844065160773
0.0325,1.77359375,1.0,2706.871636487415,0.30624439404202924,1.3220260523702336,0.952521758128577,0.2875439375,0.6693214974325368
0.033,1.772775,1.0,2711.1628892090407,0.3101358154142516,1.321617141254029,0.9535983932303027,0.28750955,0.6701607603685777
0.0335,1.7719437500000002,1.0,2715.031440351233,0.31400541246108893,1.3212064682219276,0.9546319960225743,0.2874746375,0.6710025662385072
0.034,1.7711000000000001,1.0,2718.496919051763,0.31785330513280946,1.3207938461941051,0.9556248303754804,0.2874392,0.6718472839413037
0.0345,1.7702437500000001,1.0,2721.5791008470947,0.32167961337968165,1.3203790880907373,0.9565790120722443,0.2874032375,0.6726952803384808
0.035,1.7693750000000001,1.0,2724.2978927288987,0.32548445715197377,1.3199620068320002,0.9574965202273137,0.28736675,0.6735469202297165
0.035500000000000004,1.76849375,1.0,2726.673318977434,0.3292679563999542,1.3195424153380688,0.9583792076975113,0.2873297375,0.6744025663262536
0.036000000000000004,1.7676,1.0,2728.7255077698906,0.33303023107389135,1.3191201265291193,0.9592288105855066,0.2872922,0.6752625792220629
0.0365,1.76669375,1.0,2730.47467856546,0.33677140112405346,1.318694953325327,0.9600469569241338,0.2872541375,0.6761273173627796
0.037,1.765775,1.0,2731.9411302659946,0.340491586500709,1.3182667086468678,0.9608351746205723,0.28721555,0.6769971370124037
0.0375,1.76484375,1.0,2733.13877826026,0.34419090154746257,1.3178352640200974,0.9615949032685159,0.2871764375,0.677872273422433
0.038,1.7639,1.0,2734.086000062768,0.3478694670562016,1.3174004509331037,0.9623274934934449,0.28713679999999997,0.6787530412865512
0.0385,1.76294375,1.0,2734.8033393817022,0.35152740480672584,1.3169620816490448,0.9630342141070839,0.28709663750000003,0.6796397920813273
0.039,1.761975,1.0,2735.301965706064,0.3551648275777408,1.316520053927231,0.9637162656240003,0.28705595,0.6805327023657614
0.0395,1.7609937500000001,1.0,2735.593079808125,0.3587818481479519,1.3160742655269726,0.9643747789149266,0.2870147375,0.6814319472945944
0.04,1.76,1.0,2735.6879093554453,0.36237857929606454,1.3156246142075791,0.9650108199881301,0.286973,0.6823377005941226
0.0405,1.7589937500000001,1.0,2735.5977047551823,0.36595513380078415,1.3151709977283608,0.9656253943936469,0.2869307375,0.6832501345373394
0.041,1.757975,1.0,2735.33373522967,0.3695116244408162,1.3147133138486276,0.9662194512837841,0.28688795,0.6841694199184161
0.0415,1.75694375,1.0,2734.907285124183,0.37304816399486607,1.3142514603276896,0.9667938871600334,0.2868446375,0.6850957260265133
0.042,1.7559,1.0,2734.329650446207,0.3765648652416393,1.3137853349248567,0.9673495493336192,0.28680079999999997,0.686029220618927
0.0425,1.75484375,1.0,2733.612135636891,0.3800618409598413,1.313314835399439,0.9678872391242843,0.2867564375,0.6869700698935663
0.043000000000000003,1.753775,1.0,2732.761270231949,0.38353919823448746,1.3128399029362885,0.9684077174475278,0.28671155,0.6879183518201964
0.043500000000000004,1.75269375,1.0,2731.788198074068,0.3869970514991369,1.312360436850626,0.9689117025853902,0.28666613750000003,0.6888742266916009
0.044,1.7516,1.0,2730.704901456493,0.39043551454123904,1.3118763288458115,0.9693998743409399,0.2866202,0.6898378683216175
0.0445,1.75049375,1.0,2729.5174642487864,0.3938546933967084,1.3113875242189814,0.9698728801608687,0.2865737375,0.6908093423494046
0.045,1.7493750000000001,1.0,2728.2319713060415,0.3972546941014595,1.3108939682672718,0.9703313341628964,0.28652675,0.691788713313229
0.0455,1.74824375,1.0,2726.8545073513596,0.4006356226914069,1.3103956062878193,0.970775819172324,0.2864792375,0.6927760446339831
0.046,1.7471,1.0,2725.391155925564,0.403997585202465,1.3098923835777598,0.9712068886151116,0.2864312,0.6937713985985159
0.0465,1.7459437500000001,1.0,2723.847998402009,0.4073406876705483,1.3093842454342304,0.9716250682788711,0.28638263750000004,0.6947748363427676
0.047,1.744775,1.0,2722.2311130686235,0.41066503613157135,1.3088711371543669,0.972030857952162,0.28633355,0.6957864178347204
0.0475,1.74359375,1.0,2720.546574276265,0.41397073662144873,1.3083530040353057,0.9724247329515794,0.28628393750000003,0.6968062018571516
0.048,1.7424,1.0,2718.8004516526694,0.4172578951760948,1.3078297913741832,0.9728071455452895,0.2862338,0.6978342459902005
0.0485,1.74119375,1.0,2716.996432740136,0.42052660751064247,1.3073014661205755,0.9731785265132217,0.2861831375,0.698870564158625
0.049,1.739975,1.0,2715.1407606927623,0.42377698582738593,1.3067679719071896,0.9735392865756279,0.28613195,0.6999152149615744
0.0495,1.73874375,1.0,2713.239122441583,0.42700914087185105,1.3062292573755567,0.9738898172396311,0.2860802375,0.7009682459413745
0.05,1.7375,1.0,2711.2946527801605,0.4302231715347452,1.305685294382801,0.974230491895238,0.286028,0.7020296581572076
0.0505,1.73624375,1.0,2709.3104831745363,0.4334191767067761,1.3051360547860467,0.9745616666861913,0.2859752375,0.7030994517525725
0.051000000000000004,1.734975,1.0,2707.2897415248717,0.43659725527865123,1.304581510442418,0.974883681457312,0.28592195,0.7041776259458392
0.051500000000000004,1.73369375,1.0,2705.235551943934,0.43975750614107817,1.3040216332090395,0.9751968606416869,0.2858681375,0.7052641790207533
0.052000000000000005,1.7324,1.0,2703.1510345535994,0.44290002818476437,1.3034563949430351,0.9755015140920132,0.2858138,0.70635910831689
0.0525,1.73109375,1.0,2701.0393052988147,0.44602492030041746,1.3028857675015295,0.9757979378600777,0.28575893750000003,0.7074624102200555
0.053,1.729775,1.0,2698.9034757790946,0.44913228137874506,1.3023097227416465,0.9760864149280213,0.28570355000000003,0.708574080152643
0.0535,1.72844375,1.0,2696.746653097406,0.45222221031045456,1.3017282325205108,0.9763672158947677,0.2856476375,0.7096941125639303
0.054,1.7271,1.0,2694.571939727145,0.45529480598625366,1.3011412686952464,0.9766405996207176,0.2855912,0.7108225009203362
0.0545,1.7257437500000001,1.0,2692.3824333959133,0.4583501672968498,1.3005488031229777,0.9769068138335848,0.2855342375,0.7119592376956173
0.055,1.724375,1.0,2690.1803813406377,0.46138838566325474,1.2999508154034078,0.977166095441756,0.28547675,0.713104299549843
0.0555,1.72299375,1.0,2687.965498243982,0.46440953446927175,1.2993473083009954,0.977418671020821,0.2854187375,0.7142576180259848
0.056,1.7216,1.0,2685.7446382581234,0.46741375640402644,1.2987382191640913,0.9776647603268493,0.2853602,0.7154192487585056
0.0565,1.72019375,1.0,2683.518746184924,0.4704011416951314,1.2981235394098558,0.9779045722068539,0.28530113749999997,0.716589143015753
0.057,1.718775,1.0,2681.288765295662,0.47337178057019946,1.2975032604554493,0.9781383069184446,0.28524155,0.7177672513341107
0.0575,1.71734375,1.0,2679.05563732069,0.4763257632568431,1.2968773737180324,0.9783661565503762,0.2851814375,0.7189535235149355
0.058,1.7159,1.0,2676.82030244248,0.4792631799826751,1.2962458706147648,0.9785883054192351,0.2851208,0.7201479086214925
0.0585,1.71444375,1.0,2674.583699288676,0.48218412097530805,1.2956087425628076,0.9788049304438,0.2850596375,0.7213503549758794
0.059000000000000004,1.7129750000000001,1.0,2672.346764927628,0.4850886764623547,1.2949659809793208,0.9790162014984981,0.28499795,0.7225608101559533
0.059500000000000004,1.71149375,1.0,2670.110434865491,0.4879769366714276,1.2943175772814646,0.9792222817472794,0.2849357375,0.7237792209922485
0.06,1.71,1.0,2667.8756430445037,0.49084899183013947,1.2936635228863995,0.979423327959138,0.284873,0.7250055335648888
0.0605,1.7084937500000001,1.0,2665.643321843616,0.493704932166103,1.2930038092112859,0.9796194908064224,0.2848097375,0.7262396932004986
0.061,1.7069750000000001,1.0,2663.4144020799686,0.4965448479069309,1.292338427673284,0.9798109151470017,0.28474595,0.7274816444691072
0.0615,1.7054437500000001,1.0,2661.1898130127215,0.4993688292802357,1.2916673696895544,0.9799977402912735,0.2846816375,0.7287313311810485
0.062,1.7039,1.0,2658.970482348092,0.5021769665136301,1.2909906266772573,0.9801801002549405,0.2846168,0.7299886963838556
0.0625,1.70234375,1.0,2656.7573362459643,0.5049693498347269,1.290308190053553,0.9803581239984128,0.2845514375,0.7312536823591524
0.063,1.7007750000000001,1.0,2654.5512993284538,0.5077460694711385,1.2896200512356017,0.9805319356536385,0.28448555,0.732526230619539
0.0635,1.69919375,1.0,2652.3532946901055,0.5105072156504779,1.2889262016405643,0.9807016547391142,0.28441913750000003,0.733806281905472
0.064,1.6976,1.0,2650.1642439090115,0.5132528786003574,1.2882266326856004,0.9808673963637687,0.2843522,0.7350937761821428
0.0645,1.69599375,1.0,2647.984014706216,0.5159830974279502,1.287521345499492,0.9810292682362106,0.2842847375,0.7363886348283218
0.065,1.694375,1.0,2645.8148899822163,0.5186980168700825,1.2868103189156608,0.981187380588243,0.28421675,0.7376908193989062
0.0655,1.69274375,1.0,2643.657128665294,0.5213977272671317,1.2860935504267275,0.9813418367207531,0.2841482375,0.7390002563910382
0.066,1.6911,1.0,2641.510741028916,0.5240823093688074,1.285371039819301,0.9814927356835615,0.2840792,0.7403168674504175
0.0665,1.6894437500000001,1.0,2639.3757373713643,0.5267518439248187,1.2846427868799906,0.9816401730132323,0.2840096375,0.7416405735879856
0.067,1.687775,1.0,2637.2521280160336,0.5294064116848749,1.2839087913954053,0.9817842408810297,0.28393955,0.7429712951798478
0.0675,1.68609375,1.0,2635.1399233124753,0.5320460933986854,1.2831690531521545,0.9819250282336276,0.2838689375,0.7443089519671949
0.068,1.6844000000000001,1.0,2633.0391336364023,0.5346709698159595,1.2824235719368473,0.9820626209269743,0.2837978,0.7456534630562259
0.0685,1.68269375,1.0,2630.949769390221,0.5372811216864066,1.281672347536093,0.9821971018536928,0.2837261375,0.7470047469180692
0.069,1.680975,1.0,2628.8718410036827,0.539876629759736,1.2809153797365005,0.9823285510643679,0.28365395,0.7483627213887045
0.0695,1.67924375,1.0,2626.805358934095,0.542457574785657,1.280152668324679,0.982457045883055,0.28358123749999997,0.749727303668885
0.07,1.6775,1.0,2624.7503336670725,0.545024037513879,1.279384213087238,0.9825826610173234,0.283508,0.7510984103240588
0.07050000000000001,1.67574375,1.0,2622.7067757166537,0.5475760986941112,1.2786100138107863,0.9827054686631266,0.2834342375,0.7524759572842904
0.07100000000000001,1.673975,1.0,2620.6746956260854,0.5501138390760629,1.2778300702819332,0.9828255386047747,0.28335995,0.7538598598441839
0.07150000000000001,1.67219375,1.0,2618.654103968102,0.5526373394094436,1.277044382287288,0.9829429383102738,0.2832851375,0.7552500326628032
0.07200000000000001,1.6704,1.0,2616.645011345585,0.5551466804439624,1.2762529496134596,0.9830577330222671,0.2832098,0.7566463897635949
0.0725,1.66859375,1.0,2614.6474283916477,0.5576419429293288,1.2754557720470574,0.9831699858448193,0.2831339375,0.7580488445343098
0.073,1.6667750000000001,1.0,2612.6613657706876,0.5601232076152521,1.2746528493746905,0.9832797578262498,0.28305755,0.7594573097269247
0.0735,1.66494375,1.0,2610.6868341783093,0.5625905552514416,1.2738441813829682,0.983387108038226,0.2829806375,0.7608716974575639
0.074,1.6631,1.0,2608.7238443420893,0.5650440665876066,1.2730297678584994,0.9834920936513052,0.2829032,0.7622919192064219
0.0745,1.6612437500000001,1.0,2606.7721209323654,0.5674838117083526,1.2722096112488501,0.9835947695202688,0.2828252375,0.7637178811981821
0.075,1.659375,1.0,2604.8312800109225,0.5699098277097143,1.2713837150164164,0.9836951869572781,0.28274675,0.7651494873210729
0.0755,1.65749375,1.0,2602.903512998923,0.5723222602227394,1.2705520586577594,0.9837934006536915,0.2826677375,0.7665866822578071
