Time [s],Phi [rad],STIM [ ],Fsee [N],Gamma [ ],Lcerel [ ],q [ ],Lmtc [m],fisomrel [ ]
0.0,1.8,1.0,17.96738097645514,1.5291557348976422e-05,1.3793397212577532,0.005000062111775595,0.288653,0.5411395914416139
0.0005,1.79999375,1.0,18.278475722181472,0.005624415092601598,1.379302195449659,0.012955211089664357,0.2886527375,0.541230371578663
0.001,1.799975,1.0,21.624027182468858,0.011202075879717355,1.3789377255338757,0.035636156045909244,0.28865195,0.5421116076760621
0.0015,1.79994375,1.0,31.083160949001304,0.01674845040070304,1.3780450175043988,0.07063945586172066,0.2886506375,0.5442664691967437
0.002,1.7999,1.0,53.61276488675065,0.02226371414590518,1.3763661612598985,0.11476254530238317,0.2886488,0.5483052061814033
0.0025,1.79984375,1.0,97.17024236554104,0.027748041621611277,1.3739326953340152,0.164623314152193,0.28864643749999996,0.554127357653822
0.003,1.7997750000000001,1.0,161.02521750024067,0.033201606357718,1.371211834246851,0.21733040871571252,0.28864354999999997,0.5605923919486241
0.0035,1.79969375,1.0,237.75925026540514,0.038624580907360664,1.3685823959223808,0.270662574974855,0.2886401375,0.5667953361483333
0.004,1.7996,1.0,321.547655930886,0.044017136857685775,1.3661539502070066,0.3229639126638287,0.2886362,0.572484964119276
0.0045000000000000005,1.7994937500000001,1.0,409.3516077260895,0.049379444835038304,1.363920845825458,0.3730801784687465,0.2886317375,0.5776837307834288
0.005,1.799375,1.0,499.49913101888376,0.05471167449606122,1.361856522861324,0.42029019033246223,0.28862675,0.5824612782611993
0.0055,1.79924375,1.0,590.8768754192354,0.060013994574960025,1.3599371459146414,0.4642132599967158,0.2886212375,0.5868789891288971
0.006,1.7991000000000001,1.0,682.6047285486176,0.06528657282717719,1.358144840272303,0.5047163198549761,0.2886152,0.5909830146247657
0.006500000000000001,1.79894375,1.0,773.969850489795,0.0705295760853261,1.3564657413262562,0.5418339779355706,0.2886086375,0.594809232336488
0.007,1.798775,1.0,864.3743641207235,0.07574317023793314,1.354888964619644,0.5757070434210178,0.28860155,0.5983859145127457
0.0075,1.79859375,1.0,953.3299672703968,0.0809275202553097,1.3534054448882453,0.6065374438992541,0.2885939375,0.6017365801126958
0.008,1.7984,1.0,1040.4415440862915,0.08608279015473298,1.352007423043615,0.6345570888833244,0.2885858,0.6048812950325047
0.0085,1.79819375,1.0,1125.402033290227,0.09120914308242738,1.3506879985157814,0.6600071214794863,0.2885771375,0.607837779646031
0.009000000000000001,1.797975,1.0,1207.9664228686843,0.09630674119889904,1.3494411299408733,0.6831249565896074,0.28856795,0.6106214818419826
0.0095,1.79774375,1.0,1287.955198164577,0.10137574588085968,1.348261290255122,0.7041363714893244,0.2885582375,0.6132464085135128
0.01,1.7975,1.0,1365.2291243873376,0.10641631700257718,1.3471435874552105,0.7232514219878673,0.288548,0.6157249033441539
0.0105,1.79724375,1.0,1439.7254175934218,0.11142861492141566,1.346083121377516,0.7406622994723159,0.2885372375,0.618069110642843
0.011,1.796975,1.0,1511.3947938663714,0.11641279838714519,1.345075667061503,0.7565433569572027,0.28852595000000003,0.6202894898024833
0.0115,1.79669375,1.0,1580.1936016366292,0.12136902413443493,1.344117615879049,0.7710516092682868,0.2885141375,0.6223949822758904
0.012,1.7964,1.0,1646.1258510947582,0.12629744889795402,1.343205359202032,0.7843275046457041,0.28850180000000003,0.6243943922672326
0.0125,1.79609375,1.0,1709.2263377370016,0.13119822887507898,1.3423354333211097,0.7964963268691596,0.2884889375,0.6262960812909695
0.013000000000000001,1.7957750000000001,1.0,1769.5509941882735,0.13607152005116543,1.3415045710683189,0.807669631726802,0.28847555,0.6281078697048582
0.0135,1.79544375,1.0,1827.142465053413,0.1409174761777794,1.3407100291846288,0.8179467680147303,0.2884616375,0.6298363393271984
0.014,1.7951000000000001,1.0,1882.0482189547538,0.1457362498859349,1.3399493173584744,0.8274160845195059,0.2884472,0.6314874414142451
0.0145,1.79474375,1.0,1934.3399112497627,0.150527993806646,1.3392199452782907,0.8361560721186196,0.2884322375,0.6330670558845455
0.015,1.794375,1.0,1984.092102893186,0.15529285949081978,1.3385196270106485,0.8442365692455515,0.28841675,0.6345805552569241
0.0155,1.79399375,1.0,2031.4082490495107,0.16003099912851337,1.3378459744096245,0.8517196715640039,0.2884007375,0.6360334744107505
0.016,1.7936,1.0,2076.353916451103,0.16474256156168818,1.337197180940141,0.8586608599503713,0.2883842,0.6374300419834877
0.0165,1.7931937500000001,1.0,2119.003100178715,0.1694276953096117,1.3365714974061889,0.8651096164980913,0.2883671375,0.6387743212173336
0.017,1.792775,1.0,2159.442384986292,0.1740865488915515,1.3359671746117576,0.8711101181365182,0.28834955,0.6400703366817371
0.0175,1.7923437500000001,1.0,2197.752364484597,0.17871926950695907,1.3353826406262155,0.8767019123226194,0.2883314375,0.6413216975975344
0.018000000000000002,1.7919,1.0,2234.0395271773014,0.18332600554332845,1.3348161630098176,0.8819203692572214,0.2883128,0.6425323245771148
0.0185,1.79144375,1.0,2268.374688447487,0.18790690160900742,1.3342664602287948,0.8867973277159117,0.2882936375,0.6437051453001006
0.019,1.790975,1.0,2300.8307610943966,0.1924621018973543,1.333732303050258,0.8913613998309707,0.28827395,0.6448429524897028
0.0195,1.79049375,1.0,2331.4872789609726,0.19699175060172727,1.3332124622413186,0.8956383281838202,0.2882537375,0.6459485172419573
0.02,1.79,1.0,2360.423375305817,0.20149599099378873,1.332705771720288,0.8996513257821873,0.288233,0.6470244561990041
0.0205,1.78949375,1.0,2387.723889428269,0.20597496699709095,1.3322110622748728,0.9034213455919654,0.2882117375,0.6480733740503845
0.021,1.788975,1.0,2413.4624162988976,0.2104288205506826,1.3317273209440443,0.9069673645145656,0.28818995000000003,0.6490975272298694
0.021500000000000002,1.78844375,1.0,2437.700843519864,0.21485769127034585,1.3312536873236516,0.910306597482957,0.2881676375,0.6500988349313919
0.022,1.7879,1.0,2460.5045543903498,0.21926171877186276,1.330789301009544,0.9134546569030734,0.2881448,0.6510792038827083
0.0225,1.78734375,1.0,2481.942135604605,0.22364104267101553,1.3303333015975705,0.9164257239934577,0.28812143749999997,0.6520405288764304
0.023,1.786775,1.0,2502.0777524188547,0.22799580090819976,1.3298848984524316,0.9192327123402099,0.28809755,0.6529845464701176
0.0235,1.78619375,1.0,2520.9816129068736,0.23232613356695955,1.3294432679711192,0.9218873823410548,0.28807313749999996,0.6539130522592772
0.024,1.7856,1.0,2538.714153097852,0.23663217833624864,1.329007701092052,0.9244004842308144,0.2880482,0.6548275912695247
0.0245,1.78499375,1.0,2555.3247786090924,0.24091406972943938,1.328577611189711,0.92678186074815,0.2880227375,0.6557294433190789
0.025,1.784375,1.0,2570.864560706362,0.24517194225990427,1.328152411638577,0.9290405176941007,0.28799675,0.6566198811727868
0.025500000000000002,1.78374375,1.0,2585.3860954604074,0.2494059304410157,1.327731515813131,0.9311847065271657,0.2879702375,0.6575001707360568
0.026000000000000002,1.7831000000000001,1.0,2598.9433705331803,0.2536161687861461,1.3273143370878537,0.9332219978004416,0.2879432,0.6583715712268459
0.0265,1.78244375,1.0,2611.5834137648994,0.2578027896076488,1.326900365276181,0.9351593577292996,0.2879156375,0.659235175963965
0.027,1.781775,1.0,2623.356379416992,0.26196592754148806,1.3264890711612853,0.9370031923015749,0.28788755,0.6600921122839323
0.0275,1.7810937500000001,1.0,2634.313746749485,0.2661057166296181,1.326079922461824,0.9387594007967333,0.2878589375,0.6609435081865142
0.028,1.7804,1.0,2644.4908034421687,0.27022228566585943,1.3256725447460402,0.940433444404607,0.2878298,0.6617901581589236
0.0285,1.77969375,1.0,2653.9235280050366,0.27431576344403225,1.3252665635821763,0.9420303648927365,0.2878001375,0.6626328527278127
0.029,1.778975,1.0,2662.648529765406,0.278386278757957,1.3248616045384756,0.9435548222778771,0.28776995,0.6634723784970891
0.029500000000000002,1.7782437500000001,1.0,2670.702991964114,0.2824339604014541,1.3244572931831808,0.9450111286617346,0.2877392375,0.6643095181767966
0.03,1.7775,1.0,2678.1246179595873,0.2864589371683438,1.324053255084535,0.9464032786632449,0.287708,0.6651450506030527
0.0305,1.77674375,1.0,2684.9481818844038,0.2904613365534728,1.323649146958521,0.9477349804583016,0.2876762375,0.6659796864573396
0.031,1.775975,1.0,2691.203322019515,0.2944412852016399,1.3232446762515657,0.9490096827619601,0.28764395,0.666814028300448
0.0315,1.7751937500000001,1.0,2696.929424798317,0.2983989128224169,1.3228394643905708,0.9502305806547491,0.2876111375,0.6676488527806422
0.032,1.7744,1.0,2702.150807354949,0.30233434242818186,1.322433273614221,0.9514006615906884,0.2875778,0.6684846430689314
0.0325,1.77359375,1.0,2706.892037325713,0.3062476970313129,1.3220258661612017,0.9525227072935621,0.2875439375,0.6693218798569127
0.033,1.772775,1.0,2711.177908877251,0.3101390996441882,1.3216170042701971,0.9535993104210257,0.28750955,0.6701610413401276
0.0335,1.7719437500000002,1.0,2715.0334199886174,0.31400867327918575,1.3212064501798928,0.954632889688538,0.2874746375,0.6710026031978062
0.034,1.7711000000000001,1.0,2718.483750986183,0.3178565409486838,1.3207939661289734,0.9556257036118502,0.2874392,0.671847038569015
0.0345,1.7702437500000001,1.0,2721.553966623368,0.32168282511651825,1.3203793168840763,0.9565798631455685,0.2874032375,0.6726948128599893
0.035,1.7693750000000001,1.0,2724.266013167692,0.3254876428737022,1.3199622968825457,0.9574973447858339,0.28736675,0.6735463283598395
0.035500000000000004,1.76849375,1.0,2726.643949881494,0.3292711240553968,1.3195426824311092,0.9583800001714017,0.2873297375,0.6744020220176381
0.036000000000000004,1.7676,1.0,2728.703816031236,0.3330333855995293,1.3191203237271978,0.9592295688084641,0.2872922,0.6752621778834454
0.0365,1.76669375,1.0,2730.461733717112,0.3367745444440268,1.3186950709682435,0.9600476819124487,0.2872541375,0.676127078254293
0.037,1.765775,1.0,2731.933898486662,0.34049471752681665,1.3182667743516778,0.9608358703686444,0.28721555,0.6769970036472519
0.0375,1.76484375,1.0,2733.136570446358,0.3441940217858259,1.3178352840749323,0.9615955720221461,0.2871764375,0.6778722327710685
0.038,1.7639,1.0,2734.0860658704064,0.3478725741589818,1.3174004503354388,0.962328138360421,0.28713679999999997,0.6787530424963668
0.0385,1.76294375,1.0,2734.798749307531,0.35153049158421157,1.3169621233306288,0.9630348406452132,0.28709663750000003,0.6796397078244237
0.039,1.761975,1.0,2735.2910261843076,0.3551678909994424,1.316520153257934,0.9637168755446716,0.28705595,0.6805325018545088
0.0395,1.7609937500000001,1.0,2735.578968616481,0.35878488719830415,1.3160743936496127,0.9643753702064135,0.2870147375,0.6814316890275183
0.04,1.7600036843984377,1.0,2735.8476775670174,0.36238159630624106,1.3156248275613107,0.9650113990048907,0.2869731547447344,0.6823372711316738
0.0405,1.7590132817918827,1.0,2736.4938862112263,0.3659581327378936,1.315171682336926,0.9656259964922365,0.2869315578352591,0.6832487584595404
0.041,1.7580228791853278,1.0,2737.5065056908034,0.3695146079949359,1.3147152120319112,0.9662201407143829,0.2868899609257838,0.6841656100628482
0.0415,1.757032476578773,1.0,2738.857741296497,0.37305113357904196,1.3142556707017192,0.9667947552116993,0.2868483640163085,0.6850872877289944
0.042,1.756042073972218,1.0,2740.519837023558,0.37656782099188574,1.313793312401803,0.9673507126260903,0.28680676710683317,0.6860132560328585
0.0425,1.7550516713656632,1.0,2742.465058988979,0.3800647817351413,1.3133283911876155,0.9678888380341799,0.28676517019735787,0.6869429823845046
0.043000000000000003,1.7540612687591084,1.0,2744.665680279346,0.3835421273104827,1.3128611611146093,0.968409912029925,0.28672357328788256,0.6878759370727631
0.043500000000000004,1.7530708661525534,1.0,2747.0972421223623,0.3869999681811621,1.312391846566193,0.968914671039881,0.28668197637840726,0.6888116524201662
0.044,1.7520804635459986,1.0,2749.7395196841367,0.3904384139542724,1.3119206334671585,0.9694038094970667,0.28664037946893195,0.6897497398515516
0.0445,1.7510900609394437,1.0,2752.5751256964395,0.3938575727393834,1.3114476819328826,0.9698779834062795,0.28659878255945664,0.6906898642175828
0.045,1.7500996583328887,1.0,2755.587185952895,0.3972575524024586,1.310973147301065,0.9703378145555703,0.28655718564998134,0.6916317017145093
0.0455,1.749109255726334,1.0,2758.7589756227117,0.4006384607101365,1.31049718338043,0.9707838928891048,0.28651558874050603,0.6925749333954708
0.046,1.7481188531197789,1.0,2762.0750879270713,0.40400040486923644,1.3100199318484609,0.9712167775922428,0.2864739918310307,0.6935192661246036
0.0465,1.747128450513224,1.0,2765.521289862235,0.4073434916895725,1.3095415235503882,0.9716369990728816,0.2864323949215554,0.6944644298408944
0.047,1.7461380479066693,1.0,2769.0862268550177,0.41066782624213943,1.3090620631160068,0.9720450593949449,0.2863907980120801,0.6954102077247367
0.0475,1.7451476453001142,1.0,2772.758522345509,0.41397351359793205,1.308581655175111,0.9724414360752031,0.2863492011026048,0.6963563842136125
0.048,1.7441572426935594,1.0,2776.527217272736,0.4172606584813959,1.30810040037581,0.9728265831915323,0.2863076041931295,0.6973027528324793
0.0485,1.7431668400870046,1.0,2780.381855293327,0.4205293655350889,1.30761839461214,0.9732009327211564,0.2862660072836542,0.6982491176538574
0.049,1.7421764374804496,1.0,2784.313887385801,0.4237797379313852,1.3071357163838222,0.9735648947727684,0.2862244103741789,0.6991953179891466
0.0495,1.7411860348738948,1.0,2788.315702663308,0.4270118780187324,1.3066524355613458,0.9739188595141351,0.2861828134647036,0.7001412109830825
0.05,1.7401956322673398,1.0,2792.3796705428495,0.4302258881455782,1.3061686220152005,0.9742631989732675,0.2861412165552283,0.70108665463429
0.0505,1.739205229660785,1.0,2796.5047345171406,0.43342185940467387,1.305684286395428,0.974598262849603,0.286099619645753,0.7020316232491004
0.051000000000000004,1.7382148270542301,1.0,2800.674773067668,0.4365999094563437,1.3051995745210374,0.9749243967408017,0.2860580227362777,0.7029758281638321
0.051500000000000004,1.737224424447675,1.0,2804.8836846192557,0.43976014001263974,1.304714541942666,0.9752419229863126,0.28601642582680237,0.7039191579358139
0.052000000000000005,1.7362340218411203,1.0,2809.1281378051085,0.442902648087259,1.3042292192304916,0.9755511474056718,0.28597482891732706,0.7048615502755277
0.0525,1.7352436192345655,1.0,2813.4047915455467,0.4460275306938983,1.303743636954692,0.9758523622812224,0.28593323200785176,0.705802943270205
0.053,1.7342532166280105,1.0,2817.710294861484,0.4491348848462547,1.3032578256854443,0.9761458470753293,0.28589163509837645,0.7067432753843643
0.0535,1.7332628140214557,1.0,2822.0412867090263,0.4522248075580251,1.3027718159929262,0.9764318691036546,0.28585003818890115,0.7076824854602858
0.054,1.7322724114149008,1.0,2826.394395834424,0.4552973958429063,1.3022856384473156,0.9767106841675398,0.28580844127942584,0.7086205127184273
0.0545,1.7312820088083458,1.0,2830.7662406502404,0.45835274671459536,1.30179932361879,0.976982537148299,0.28576684436995053,0.7095572967577836
0.055,1.730291606201791,1.0,2835.1534291316466,0.46139095718678924,1.3013129020775267,0.9772476625660256,0.28572524746047523,0.7104927775561825
0.0555,1.729301203595236,1.0,2839.552558733997,0.46441212427318473,1.3008264043937035,0.9775062851053075,0.2856836505509999,0.711426895470523
0.056,1.7283108009886812,1.0,2843.9602163305944,0.46741634498747886,1.3003398611374979,0.9777586201100693,0.2856420536415246,0.7123595912369531
0.0565,1.7273203983821264,1.0,2848.3729781717097,0.4704037163433685,1.2998533028790873,0.9780048740495956,0.2856004567320493,0.7132908059709896
0.057,1.7263299957755713,1.0,2852.79332646292,0.4733743081108649,1.2993667075839437,0.9782452395147466,0.285558859822574,0.7142205816018801
0.0575,1.7253395931690165,1.0,2857.213107355143,0.4763282512259411,1.2988801477781122,0.9784799120898107,0.2855172629130987,0.715148779541243
0.058,1.7243491905624615,1.0,2861.631399161853,0.4792656356460429,1.2983936315613578,0.9787090722713111,0.2854756660036234,0.7160753847054357
0.0585,1.7233587879559067,1.0,2866.047393699572,0.48218655070935695,1.2979071660017198,0.9789328932741309,0.2854340690941481,0.7170003840715042
0.059000000000000004,1.7223683853493519,1.0,2870.460280344098,0.4850910857540698,1.2974207581672372,0.9791515414891292,0.2853924721846728,0.7179237647041639
0.059500000000000004,1.7213779827427969,1.0,2874.869246038799,0.48797933011836797,1.2969344151259496,0.9793651768059478,0.2853508752751975,0.7188455137557723
0.06,1.720387580136242,1.0,2879.273475304512,0.4908513731404382,1.296448143945896,0.9795739529181118,0.2853092783657222,0.7197656184663055
0.0605,1.7193971775296872,1.0,2883.6721502500177,0.49370730415846714,1.2959619516951155,0.9797780176115287,0.28526768145624687,0.7206840661633231
0.061,1.7184067749231322,1.0,2888.0644505837854,0.49654721251064127,1.2954758454416477,0.979977513037412,0.28522608454677156,0.7216008442619373
0.0615,1.7174163723165774,1.0,2892.4495536273384,0.4993711875351473,1.2949898322535314,0.9801725759705797,0.28518448763729626,0.722515940264775
0.062,1.7164259697100226,1.0,2896.8266343286386,0.5021793185701717,1.2945039191988061,0.9803633380540188,0.28514289072782095,0.7234293417619357
0.0625,1.7154355671034676,1.0,2901.1948652777996,0.5049716949539014,1.2940181133455109,0.9805499260305442,0.28510129381834565,0.7243410364309513
0.063,1.7144451644969128,1.0,2905.5534167229644,0.5077484060245226,1.293532421761685,0.9807324619623257,0.28505969690887034,0.7252510120367355
0.0635,1.713454761890358,1.0,2909.901456587924,0.5105095411202222,1.2930468515153677,0.9809110634390011,0.28501809999939504,0.7261592564315371
0.064,1.712464359283803,1.0,2914.2381504903096,0.5132551895791867,1.292561409674598,0.9810858437750539,0.28497650308991973,0.7270657575548851
0.0645,1.711473956677248,1.0,2918.562798603692,0.5159854373769988,1.2920761021045324,0.9812569118987037,0.2849349061804444,0.7279705056741798
0.065,1.710483554070693,1.0,2922.8766453704616,0.5187003342335774,1.2915909175759162,0.981424369464857,0.2848933092709691,0.7288735229184798
0.0655,1.7094931514641383,1.0,2927.177399628901,0.521400023044895,1.291105875926754,0.9815883225171275,0.2848517123614938,0.7297747735998639
0.066,1.7085027488575835,1.0,2931.465025303659,0.5240845845386701,1.2906209771586852,0.9817488680959086,0.2848101154520185,0.7306742590412341
0.0665,1.7075123462510284,1.0,2935.7394864548946,0.5267540994426212,1.290136221273349,0.9819060998569507,0.2847685185425432,0.7315719805651222
0.067,1.7065219436444736,1.0,2940.000747277745,0.5294086484844667,1.2896516082723846,0.9820601082135905,0.2847269216330679,0.7324679394936897
0.0675,1.7055315410379186,1.0,2944.248772102734,0.532048312391925,1.2891671381574312,0.9822109804720385,0.2846853247235926,0.733362137148728
0.068,1.7045411384313638,1.0,2948.4835253957094,0.5346731718927146,1.288682810930128,0.9823588009601071,0.2846437278141173,0.734254574851658
0.0685,1.703550735824809,1.0,2952.704971757579,0.5372833077145539,1.2881986265921146,0.9825036511497454,0.284602130904642,0.7351452539235297
0.069,1.702560333218254,1.0,2956.913075924721,0.5398788005851615,1.2877145851450298,0.9826456097737151,0.2845605339951667,0.7360341756850236
0.0695,1.7015699306116991,1.0,2961.1078027686854,0.5424597312322557,1.287230686590513,0.9827847529367266,0.28451893708569137,0.7369213414564493
0.07,1.7005795280051443,1.0,2965.2891172962973,0.545026180383555,1.2867469309302033,0.9829211542213391,0.28447734017621606,0.7378067525577463
0.07050000000000001,1.6995891253985893,1.0,2969.4569846496684,0.5475782287667779,1.2862633181657401,0.9830548847888962,0.28443574326674076,0.7386904103084829
0.07100000000000001,1.6985987227920345,1.0,2973.611370106196,0.5501159571096427,1.2857798482987628,0.9831860134757721,0.28439414635726545,0.7395723160278576
0.07150000000000001,1.6976083201854797,1.0,2977.752239078606,0.552639446139868,1.2852965213309104,0.983314606885168,0.28435254944779015,0.7404524710346982
