Time [s],Phi [rad],STIM [ ],Fsee [N],Gamma [ ],Lcerel [ ],q [ ],Lmtc [m],fisomrel [ ]
0.0,1.8,1.0,18.00079428591934,0.0001851043018166543,1.3793359796116091,0.005008923795891619,0.288653,0.5411486434059338
0.0005,1.79999375,1.0,18.367408143569765,0.005793275321900376,1.3792923292429031,0.01343378299192809,0.2886527375,0.5412542378108839
0.001,1.799975,1.0,21.839074082379007,0.011369988936654335,1.378915818855346,0.03652686857387635,0.28865195,0.5421645478991791
0.0015,1.79994375,1.0,31.570097462677424,0.016915421598214634,1.378003702655771,0.07185491431908414,0.2886506375,0.5443660739111209
0.002,1.7999,1.0,54.641024800946425,0.022429748766888254,1.3762997886912838,0.1161996060757022,0.2886488,0.5484645058383137
0.0025,1.79984375,1.0,98.88109647280866,0.02791314491975583,1.373850634754314,0.16618519391060452,0.28864643749999996,0.5543230321868511
0.003,1.7997750000000001,1.0,163.23998283847118,0.03336578355687529,1.371129233788959,0.2189407601812419,0.28864354999999997,0.5607879203674117
0.0035,1.79969375,1.0,240.25539731550444,0.03878783720214871,1.368505720986711,0.272263586026346,0.2886401375,0.5669755535716334
0.004,1.7996,1.0,324.199586973743,0.044179477413693,1.3660838637286843,0.3245136611520072,0.2886362,0.5726486119817542
0.0045000000000000005,1.7994937500000001,1.0,412.0952104091073,0.04954087478915682,1.3638565571505255,0.3745509719156172,0.2886317375,0.5778329267173674
0.005,1.799375,1.0,502.29668233008687,0.054872198957580484,1.361797163221936,0.42166600805768023,0.28862675,0.5825982547339282
0.0055,1.79924375,1.0,593.6975170319454,0.060173618618280904,1.3598821070555958,0.4654869124997637,0.2886212375,0.5870053221340075
0.006,1.7991000000000001,1.0,685.4263330323605,0.06544530150540025,1.3580936071570122,0.5058867190078145,0.2886152,0.5911000271469369
0.006500000000000001,1.79894375,1.0,776.7703372470648,0.07068741440962592,1.356417981080223,0.542904098371897,0.2886086375,0.59491780217697
0.007,1.798775,1.0,867.139009021235,0.075900123234106,1.354844344683304,0.5766822413787025,0.28860155,0.598486897468994
0.0075,1.79859375,1.0,956.0435088741197,0.08108359280255226,1.353363739369504,0.607424413026755,0.2885939375,0.6018305730191369
0.008,1.7984,1.0,1043.1041577434567,0.08623798735594104,1.3519682480346682,0.6353629471226323,0.2885858,0.604969235890964
0.0085,1.79819375,1.0,1127.998065556144,0.09136346971807958,1.3506512708456297,0.6607391996467538,0.2885771375,0.6079199179028854
0.009000000000000001,1.797975,1.0,1210.487379787924,0.09646020209418386,1.3494067029581982,0.6837902762405854,0.28856795,0.6106982013006423
0.0095,1.79774375,1.0,1290.4060877088818,0.10152834610771765,1.3482288746391797,0.7047414389745982,0.2885582375,0.6133184020010538
0.01,1.7975,1.0,1367.6108115160575,0.1065680616459178,1.3471129903719021,0.7238022804292328,0.288548,0.6157926400353182
0.0105,1.79724375,1.0,1442.015655983422,0.11157950806682608,1.3460544693326773,0.7411646013954517,0.2885372375,0.6181323477515279
0.011,1.796975,1.0,1513.5929027262257,0.11656284476674449,1.3450488266113676,0.7570020746624085,0.28852595000000003,0.6203485562950204
0.0115,1.79669375,1.0,1582.3128420589471,0.12151822896856264,1.3440923073490993,0.7714711337027328,0.2885141375,0.622450523033077
0.012,1.7964,1.0,1648.1691136007107,0.1264458169984979,1.3431814510878508,0.7847118208743482,0.28850180000000003,0.6244467207564958
0.0125,1.79609375,1.0,1711.1912666366925,0.13134576484565216,1.3423128696548465,0.7968490152210835,0.2884889375,0.626345342055689
0.013000000000000001,1.7957750000000001,1.0,1771.4343684918078,0.13621822830566938,1.3414833152922467,0.8079938830547734,0.28847555,0.6281541625542603
0.0135,1.79544375,1.0,1828.9477495890255,0.14106336151733068,1.3406899780201587,0.8182453920883309,0.2884616375,0.6298799071320913
0.014,1.7951000000000001,1.0,1883.7781874367222,0.1458813169816137,1.3399303847510378,0.827691583514651,0.2884472,0.6315284869993987
0.0145,1.79474375,1.0,1935.9964799687389,0.1506722471994959,1.339202062397339,0.8364106755264391,0.2884322375,0.6331057425554583
0.015,1.794375,1.0,1985.6763300748162,0.15543630362684402,1.3385027406034338,0.8444722648136838,0.28841675,0.6346170108544784
0.0155,1.79399375,1.0,2032.921813930411,0.16017363861367445,1.3378300299817285,0.8519382284674506,0.2884007375,0.6360678279417871
0.016,1.7936,1.0,2077.8013681595353,0.1648844010830519,1.3371820987260128,0.8588638466943649,0.2883842,0.6374624754423514
0.0165,1.7931937500000001,1.0,2120.387458879957,0.16956873935384473,1.336557218356585,0.8652984385889522,0.2883671375,0.6388049705742282
0.017,1.792775,1.0,2160.765022506237,0.1742268017449212,1.3359536603937436,0.8712860372393793,0.28834955,0.6400992923088176
0.0175,1.7923437500000001,1.0,2199.0212761449525,0.1788587356398701,1.3353697887446425,0.8768660394937613,0.2883314375,0.6413491862161156
0.018000000000000002,1.7919,1.0,2235.250370063426,0.18346468907362853,1.3348039991638612,0.8820737349072764,0.2883128,0.6425582976526953
0.0185,1.79144375,1.0,2269.5288271860477,0.18804480731275003,1.3342549540062687,0.8869408426647051,0.2882936375,0.6437296738592704
0.019,1.790975,1.0,2301.9290406868113,0.19259923427415404,1.3337214311330345,0.8914958844247906,0.28827395,0.6448660918447682
0.0195,1.79049375,1.0,2332.5299902198863,0.19712811387476006,1.3332022084053277,0.8957645226112736,0.2882537375,0.6459703071231269
0.02,1.79,1.0,2361.41486494831,0.20163158975631273,1.3326960814697095,0.8997698889408955,0.288233,0.647045017138713
0.0205,1.78949375,1.0,2388.6571134237815,0.20610980395254602,1.3322019937052028,0.9035328969142745,0.2882117375,0.6480925873032157
0.021,1.788975,1.0,2414.347173384745,0.2105629011146058,1.3317187692656336,0.9070724306576984,0.28818995000000003,0.6491156189951957
0.021500000000000002,1.78844375,1.0,2438.543719853484,0.21499102030643147,1.3312455810082409,0.9104056623964467,0.2881676375,0.6501159600207683
0.022,1.7879,1.0,2461.308833675434,0.2193943005919625,1.3307816017902632,0.9135481663575546,0.2881448,0.6510954461641192
0.0225,1.78734375,1.0,2482.707721523246,0.22377288103513837,1.330326004468939,0.9165140895636702,0.28812143749999997,0.6520559016951102
0.023,1.786775,1.0,2502.8084510699814,0.22812690069989844,1.3298779619015066,0.9193163023860772,0.28809755,0.652999139833253
0.0235,1.78619375,1.0,2521.648766052674,0.23245649659884512,1.3294369584071601,0.921966589086327,0.28807313749999996,0.6539263087864766
0.024,1.7856,1.0,2539.342297810224,0.23676180850804857,1.329001781206335,0.9244755746038711,0.2880482,0.6548400126373051
0.0245,1.78499375,1.0,2555.944850761644,0.24104297274734415,1.3285717864005675,0.9268530696080272,0.2880227375,0.6557416491758287
0.025,1.7843793953236897,1.0,2571.678864404036,0.24530012308598415,1.3281467705708014,0.9291081260822959,0.287996934603595,0.6566316867473017
0.025500000000000002,1.7837648778373312,1.0,2586.941774999901,0.24953339329322077,1.3277265302979802,0.9312490363609445,0.2879711248691679,0.6575105910039767
0.026000000000000002,1.7831503603509726,1.0,2601.758726258094,0.2537429171383062,1.3273108621630474,0.9332834071580596,0.28794531513474086,0.6583788249683757
0.0265,1.782535842864614,1.0,2616.147426628832,0.25792882839049275,1.3268995627469466,0.9352182254861324,0.2879195054003138,0.6592368490939258
0.027,1.7819213253782555,1.0,2630.1250868192633,0.262091260351662,1.3264924366871556,0.9370599184807329,0.28789369566588674,0.6600851045474609
0.0275,1.781306807891897,1.0,2643.7004110970006,0.2662303450442619,1.3260893703641203,0.9388144165822834,0.2878678859314597,0.6609238601260573
0.028,1.7806922904055384,1.0,2656.8835878346986,0.270346212985965,1.3256902386797798,0.9404871851885057,0.2878420761970326,0.6617534069792987
0.0285,1.78007777291918,1.0,2669.686270420248,0.27443899381310927,1.3252949052780918,0.9420832674398328,0.28781626646260555,0.6625740580360884
0.029,1.7794632554328214,1.0,2682.1203530049474,0.2785088171620327,1.3249032338030144,0.9436073241925867,0.2877904567281785,0.6633861245674226
0.029500000000000002,1.7788487379464628,1.0,2694.1752840457516,0.2825557642850386,1.324515295353694,0.945063678645921,0.2877646469937514,0.664189486867043
0.03,1.7782342204601043,1.0,2705.89557551832,0.28658003023298284,1.3241306585418045,0.9464563089924218,0.28773883725932436,0.6649850643917607
0.0305,1.7776197029737457,1.0,2717.2935798268454,0.29058174435917755,1.3237491894073592,0.9477889198116117,0.2877130275248973,0.665773158029585
0.031,1.7770051854873872,1.0,2728.3776451446884,0.2945610273612813,1.3233707921417541,0.9490649521036205,0.28768721779047024,0.666553988487291
0.0315,1.7763906680010286,1.0,2739.156269447218,0.29851799993695294,1.3229953709363855,0.9502876035825276,0.28766140805604323,0.6673277753624577
0.032,1.77577615051467,1.0,2749.6380940877775,0.3024527827838511,1.3226228299826497,0.9514598488896272,0.2876355983216161,0.6680947371619461
0.0325,1.7751616330283115,1.0,2759.8318975784227,0.3063654965996346,1.322253073471943,0.95258445789385,0.2876097885871891,0.668855091319791
0.033,1.774547115541953,1.0,2769.7465895725013,0.31025626208196205,1.3218860055956614,0.9536640122808614,0.287583978852762,0.6696090542145086
0.0335,1.7739325980555944,1.0,2779.3912050524323,0.3141251999284922,1.3215215305452013,0.9547009206091382,0.287558169118335,0.6703568411858138
0.034,1.773318080569236,1.0,2788.7748987195123,0.31797243083688387,1.3211595525119588,0.955697431991001,0.2875323593839079,0.6710986665507601
0.0345,1.7727035630828774,1.0,2797.9069395884408,0.32179807550479567,1.3207999756873303,0.9566556485387282,0.28750654964948086,0.6718347436192866
0.035,1.7720890455965188,1.0,2806.7967057847254,0.3256022546298864,1.320442704262712,0.9575775367002286,0.2874807399150538,0.6725652847091839
0.035500000000000004,1.7714745281101605,1.0,2815.4536795456784,0.3293850889098147,1.3200876424295,0.9584649375949864,0.28745493018062673,0.6732905011604736
0.036000000000000004,1.770860010623802,1.0,2823.887442424964,0.3331466990422394,1.3197346943790906,0.9593195764488532,0.28742912044619967,0.6740106033492013
0.0365,1.7702454931374434,1.0,2832.1076707009274,0.3368872057248191,1.3193837643028798,0.9601430712156005,0.2874033107117726,0.6747258007006457
0.037,1.7696309756510848,1.0,2840.124130987779,0.34060672965521266,1.3190347563922644,0.9609369404636963,0.28737750097734555,0.6754363017019405
0.0375,1.7690164581647263,1.0,2847.9466760512983,0.34430539153107875,1.31868757483864,0.9617026105984526,0.2873516912429185,0.6761423139141144
0.038,1.7684019406783678,1.0,2855.5852408269866,0.34798331205007604,1.3183421238334032,0.9624414224823119,0.2873258815084915,0.6768440439835401
0.0385,1.7677874231920092,1.0,2863.0437008165745,0.3516405973149588,1.3179983620417555,0.9631546396983236,0.28730007177406436,0.6775415871771704
0.039,1.7671729057056507,1.0,2870.3309168649425,0.3552773723086184,1.3176562043258884,0.9638434515485647,0.28727426203963735,0.6782351270831297
0.0395,1.7665583882192921,1.0,2877.455182460873,0.3588937569633593,1.3173155711597586,0.9645089779609012,0.28724845230521023,0.6789248351388908
0.04,1.7659438707329336,1.0,2884.421542048111,0.3624898620547085,1.3169764122810097,0.9651522756624779,0.2872226425707832,0.6796108228873067
0.0405,1.765329353246575,1.0,2891.235082335332,0.36606579835819275,1.3166386774272856,0.9657743416203644,0.28719683283635616,0.6802932013938119
0.041,1.7647148357602165,1.0,2897.900930682024,0.36962167664933904,1.31630231633623,0.9663761170510413,0.2871710231019291,0.6809720812510699
0.0415,1.764100318273858,1.0,2904.4242535391986,0.37315760770367407,1.3159672787454866,0.9669584911205623,0.28714521336750204,0.6816475725834567
0.042,1.7634858007874994,1.0,2910.8102549464534,0.37667370229672487,1.3156335143926994,0.9675223043622262,0.287119403633075,0.6823197850513828
0.0425,1.7628712833011408,1.0,2917.0641750853147,0.38017007120401813,1.315300973015512,0.9680683518360168,0.2870935938986479,0.682988827855457
0.043000000000000003,1.7622567658147823,1.0,2923.1912888881575,0.3836468252010809,1.3149696043515684,0.968597386051767,0.28706778416422085,0.6836548097404862
0.043500000000000004,1.7616422483284238,1.0,2929.196904703468,0.3871040750634399,1.314639358138512,0.9691101196759332,0.2870419744297938,0.684317838999315
0.044,1.7610277308420652,1.0,2935.0863630168215,0.3905419315666221,1.3143101841139868,0.9696072280400218,0.2870161646953667,0.6849780234765042
0.0445,1.7604132133557067,1.0,2940.8650352281365,0.39396050548615424,1.3139820320156368,0.9700893514670359,0.28699035496093966,0.6856354705718484
0.045,1.7597986958693481,1.0,2946.5349443798955,0.397359892541016,1.313654881134312,0.9705570975184256,0.2869645452265126,0.6862902281269789
0.0455,1.7591841783829896,1.0,2952.1012435763223,0.4007402061105992,1.3133286835422164,0.9710110434148761,0.28693873549208554,0.6869423981814464
0.046,1.758569660896631,1.0,2957.572102148765,0.40410157343019,1.3130033652087425,0.9714517373186043,0.2869129257576585,0.6875921344642939
0.0465,1.7579551434102725,1.0,2962.950221594934,0.40744409640475243,1.3126789001269343,0.9718797001475423,0.28688711602323147,0.6882394943093451
0.047,1.757340625923914,1.0,2968.238319181449,0.41076787693925054,1.3123552622898362,0.9722954272003717,0.28686130628880435,0.6888845348209427
0.0475,1.7567261084375554,1.0,2973.4391274600234,0.41407301693864845,1.3120324256904916,0.9726993896578742,0.28683549655437734,0.6895273128753439
0.048,1.7561115909511968,1.0,2978.5553937970785,0.4173596183079102,1.311710364321945,0.9730920359827224,0.2868096868199503,0.6901678851220674
0.0485,1.7554970734648383,1.0,2983.5898799198803,0.42062778295199976,1.3113890521772402,0.9734737932254627,0.2867838770855232,0.690806307985204
0.049,1.7548825559784798,1.0,2988.5453614768953,0.42387761277588126,1.311068463249421,0.9738450682437905,0.28675806735109616,0.6914426376646801
0.0495,1.7542680384921212,1.0,2993.4246276131057,0.42710920968451876,1.3107485715315315,0.974206248841622,0.2867322576166691,0.6920769301374767
0.05,1.7536535210057627,1.0,2998.2304805605554,0.4303226755828763,1.3104293510166158,0.9745577048339149,0.28670644788224203,0.6927092411588096
0.0505,1.7530390035194041,1.0,3002.9657352439704,0.433518112375918,1.3101107756977177,0.9748997890427142,0.28668063814781497,0.6933396262632647
0.051000000000000004,1.7524244860330456,1.0,3007.633218901055,0.4366956219686078,1.3097928195678814,0.9752328382294381,0.2866548284133879,0.6939681407658868
0.051500000000000004,1.751809968546687,1.0,3012.235770718066,0.43985530626590974,1.3094754566201507,0.9755571739680217,0.28662901867896085,0.6945948397632309
0.052000000000000005,1.7511954510603285,1.0,3016.7762414802455,0.44299726717278803,1.3091586608475696,0.9758731034631577,0.2866032089445338,0.6952197781343669
0.0525,1.75058093357397,1.0,3021.257493237245,0.4461216065942066,1.308842406243182,0.9761809203175397,0.2865773992101067,0.695843010541841
0.053,1.7499664160876114,1.0,3025.6797199420826,0.44922840287839994,1.3085266899289467,0.9764809042693375,0.28655158947567966,0.6964645459231109
0.0535,1.7493518986012528,1.0,3030.0458654971226,0.45231776548384545,1.3082114853279372,0.9767733246380351,0.2865257797412526,0.6970844397702385
0.054,1.7487373811148943,1.0,3034.3605200088004,0.4553898175376249,1.307896751763541,0.9770584396078184,0.2864999700068256,0.6977027750429223
0.0545,1.7481228636285358,1.0,3038.6249774003327,0.4584446514594612,1.3075824770844469,0.9773364950028699,0.28647416027239847,0.6983195784138894
0.055,1.7475083461421772,1.0,3042.840536981478,0.46148235966907736,1.3072686491393437,0.9776077262646669,0.28644835053797146,0.6989348764543459
0.0555,1.7468938286558187,1.0,3047.008503325785,0.4645030345861963,1.3069552557769208,0.9778723589767404,0.2864225408035444,0.6995486956343275
0.056,1.7462793111694601,1.0,3051.130186152425,0.46750676863054097,1.306642284845867,0.9781306093587201,0.28639673106911734,0.7001610623230428
0.0565,1.7456647936831016,1.0,3055.2069002104017,0.4704936542218344,1.3063297241948713,0.9783826847317002,0.2863709213346903,0.7007720027892033
0.057,1.745050276196743,1.0,3059.239965166656,0.47346378377979953,1.3060175616726224,0.978628783956811,0.2863451116002632,0.7013815432013482
0.0575,1.7444357587103845,1.0,3063.2307054968924,0.4764172497241593,1.3057057851278098,0.9788690978487454,0.28631930186583615,0.701989709628155
0.058,1.743821241224026,1.0,3067.1804503802296,0.47935414447463665,1.3053943824091219,0.9791038095658604,0.2862934921314091,0.702596528038747
0.0585,1.7432067237376674,1.0,3071.090533596679,0.48227456045095457,1.3050833413652478,0.9793330949783559,0.286267682396982,0.7032020243029836
0.059000000000000004,1.7425922062513088,1.0,3074.9622934279632,0.4851785900728361,1.3047726498448768,0.9795571230159306,0.28624187266255496,0.7038062241917478
0.059500000000000004,1.7419776887649503,1.0,3078.79707256206,0.4880663257600041,1.3044622956966976,0.9797760559962068,0.2862160629281279,0.7044091533772217
0.06,1.7413631712785917,1.0,3082.5962180002543,0.49093785993218153,1.3041522667693992,0.9799900499351369,0.28619025319370084,0.7050108374331512
0.0605,1.7407486537922332,1.0,3086.3610809682696,0.4937932850090915,1.3038425509116707,0.9801992548405045,0.2861644434592738,0.7056113018351047
0.061,1.7401341363058747,1.0,3090.093016830038,0.4966326934104568,1.3035331359722009,0.980403814989572,0.2861386337248467,0.7062105719607188
0.0615,1.7395196188195161,1.0,3093.7933850050645,0.49945617755600047,1.303224009799679,0.9806038691918404,0.2861128239904197,0.7068086730899368
0.062,1.7389051013331576,1.0,3097.4629930792776,0.5022638185272372,1.3029151649853266,0.9807995504300808,0.2860870142559926,0.707405621243343
0.0625,1.738290583846799,1.0,3101.1005547333207,0.5050556613773237,1.3026066119985795,0.9809909849889823,0.2860612045215656,0.7080013978786389
0.063,1.7376760663604405,1.0,3104.710545727315,0.5078318715741157,1.3022983121805762,0.981178300851953,0.28603539478713846,0.70859607924992
0.0635,1.737061548874082,1.0,3108.2935279008375,0.5105925314204351,1.3019902603042628,0.9813616168822773,0.28600958505271146,0.7091896769176136
0.064,1.7364470313877234,1.0,3111.85006492285,0.5133377232191043,1.3016824511425857,0.9815410476283601,0.2859837753182844,0.7097822023998769
0.0645,1.7358325139013648,1.0,3115.380722263969,0.5160675292729454,1.3013748794684916,0.9817167035119524,0.28595796558385733,0.710373667172679
0.065,1.7352179964150063,1.0,3118.8860671685693,0.5187820318847804,1.3010675400549265,0.9818886910068477,0.28593215584943027,0.7109640826698826
0.0655,1.7346034789286477,1.0,3122.366668627214,0.5214813133574318,1.300760427674837,0.9820571128085904,0.2859063461150032,0.71155346028332
0.066,1.7339889614422892,1.0,3125.8230973503196,0.5241654559937214,1.3004535371011694,0.9822220679957167,0.28588053638057614,0.7121418113628706
0.0665,1.7333744439559307,1.0,3129.2559257421494,0.5268345420964716,1.30014686310687,0.9823836521830027,0.2858547266461491,0.7127291472165365
0.067,1.732759926469572,1.0,3132.665727875198,0.5294886539685044,1.2998404004648854,0.9825419576671717,0.285828916911722,0.7133154791105141
0.0675,1.7321454089832136,1.0,3136.053079465678,0.5321278739126422,1.2995341439481618,0.9826970735654816,0.28580310717729496,0.7139008182692662
0.068,1.731530891496855,1.0,3139.4185578490465,0.5347522842317068,1.2992280883296456,0.9828490859475895,0.2857772974428679,0.7144851758755925
0.0685,1.7309163740104965,1.0,3142.7627419567693,0.5373619672285206,1.2989222283822832,0.9829980779610604,0.28575148770844083,0.7150685630706956
0.069,1.730301856524138,1.0,3146.0862122928543,0.5399570052059057,1.298616558879021,0.9831441299508722,0.28572567797401377,0.7156509909542479
0.0695,1.7296873390377794,1.0,3149.3895509119648,0.5425374804666844,1.2983110745928055,0.9832873195732396,0.2856998682395867,0.7162324705844567
0.07,1.7290728215514208,1.0,3152.6733413975135,0.5451034753136785,1.2980057702965828,0.9834277219040676,0.2856740585051597,0.716813012978126
0.07050000000000001,1.7284583040650623,1.0,3155.9381688400063,0.5476550720497105,1.2977006407632994,0.9835654095423202,0.2856482487707326,0.7173926291107173
