Time [s],Phi [rad],STIM [ ],Fsee [N],Gamma [ ],Lcerel [ ],q [ ],Lmtc [m],fisomrel [ ]
0.0,1.8,1.0,19.346874792536674,0.0011987878258374269,1.3791880305503839,0.005368534813114228,0.288653,0.5415064970896721
0.0005,1.79999375,1.0,19.997955206462233,0.006801272882946522,1.3791154958902874,0.01656719036530055,0.2886527375,0.5416818902291503
0.001,1.799975,1.0,24.227398419463636,0.01237233242861484,1.3786794178783068,0.04206874955351412,0.28865195,0.5427356456484269
0.0015,1.79994375,1.0,35.72152312454239,0.017912142735329335,1.3776636657460704,0.07926899364820253,0.2886506375,0.5451854450741085
0.002,1.7999,1.0,62.20745277475987,0.023420879086495924,1.3758294510487037,0.12486997780365591,0.2886488,0.5495925501416774
0.0025,1.79984375,1.0,110.44872315615511,0.028898715782434845,1.3733134829282745,0.17554778990795583,0.28864643749999996,0.5556028171682428
0.003,1.7997750000000001,1.0,177.57837550292842,0.0343458261458551,1.3706075137682634,0.2285536736938678,0.28864354999999997,0.5620219092426865
0.0035,1.79969375,1.0,256.0746283351567,0.039762382526046844,1.36802878769572,0.2817921351042153,0.2886401375,0.5680956997041411
0.004,1.7996,1.0,340.80687108876424,0.045148556305857505,1.365651328062711,0.3337167702071648,0.2886362,0.5736578644323206
0.0045000000000000005,1.7994937500000001,1.0,429.1461377880397,0.050504517916867796,1.363461725116697,0.3832710534324529,0.2886317375,0.5787486427780442
0.005,1.799375,1.0,519.5827951741019,0.055830436813685956,1.3614339886637143,0.42981349607271696,0.28862675,0.5834358158119834
0.0055,1.79924375,1.0,611.0584329799877,0.06112648152160485,1.3595461863728109,0.47302306574024877,0.2886212375,0.5877759562014284
0.006,1.7991000000000001,1.0,702.7308487636129,0.06639281958183164,1.3577816816136767,0.5128080348257201,0.2886152,0.5918120800436533
0.006500000000000001,1.79894375,1.0,793.918300600911,0.07162961770178738,1.356127393972483,0.5492298502553723,0.2886086375,0.5955780588723467
0.007,1.798775,1.0,884.0309960083771,0.07683704140378533,1.3545732481208979,0.5824455970876059,0.28860155,0.599100164913891
0.0075,1.79859375,1.0,972.6241683489309,0.0820152557647938,1.3531101801027459,0.6126654925736209,0.2885939375,0.6024017879713215
0.008,1.7984,1.0,1059.3048852741738,0.08716442433192646,1.3517309569019327,0.6401250108186509,0.2885858,0.6055017026685293
0.0085,1.79819375,1.0,1143.7707096485408,0.09228471000797507,1.350429028182073,0.6650654803785797,0.2885771375,0.6084167608653313
0.009000000000000001,1.797975,1.0,1225.8129854547167,0.09737627521163922,1.3491981786179748,0.6877222076006099,0.28856795,0.6111627297509217
0.0095,1.79774375,1.0,1305.2488381323503,0.10243928062419336,1.3480332177887424,0.708318036363499,0.2885582375,0.613752803940095
0.01,1.7975,1.0,1381.954984900917,0.10747388635298613,1.346929274228047,0.7270593706207046,0.288548,0.6161992304961753
0.0105,1.79724375,1.0,1455.867021618863,0.11248025225315633,1.3458816645292655,0.7441346818851939,0.2885372375,0.6185136292808184
0.011,1.796975,1.0,1526.934277357203,0.11745853646646007,1.3448863355200154,0.7597146287365679,0.28852595000000003,0.6207060445522175
0.0115,1.79669375,1.0,1595.1360538783722,0.122408896154702,1.3439395293601304,0.7739525722158157,0.2885141375,0.6227857147434057
0.012,1.7964,1.0,1660.4813835215894,0.127331487845598,1.3430376984546344,0.7869856763031723,0.28850180000000003,0.6247612800986841
0.0125,1.79609375,1.0,1723.0221796206167,0.13222646850536648,1.3421772859058978,0.7989361703068009,0.2884889375,0.6266412787311018
0.013000000000000001,1.7957750000000001,1.0,1782.7866851172676,0.13709399232159863,1.3413554315879492,0.8099130562238367,0.28847555,0.628432619022337
0.0135,1.79544375,1.0,1839.8150191819395,0.14193421269813652,1.3405694845593814,0.8200132728730459,0.2884616375,0.6301416651369811
0.014,1.7951000000000001,1.0,1894.1742501463018,0.14674728303882226,1.3398167938787873,0.8293229333188205,0.2884472,0.6317747021618043
0.0145,1.79474375,1.0,1945.9394976589413,0.15153335563032125,1.3390948865909398,0.8379186121115895,0.2884322375,0.6333375570404263
0.015,1.794375,1.0,1995.203232017058,0.1562925831139008,1.3384013343207763,0.8458684020416399,0.28841675,0.6348358958224432
0.0155,1.79399375,1.0,2042.0277878940735,0.1610251149774346,1.3377342294476413,0.8532330587457236,0.2884007375,0.6362742036333162
0.016,1.7936,1.0,2086.488957111929,0.16573110056811297,1.3370916856226038,0.8600667038264515,0.2883842,0.6376568733549478
0.0165,1.7931937500000001,1.0,2128.6742474164516,0.1704106889904494,1.336471841075555,0.8664176119981347,0.2883671375,0.638988202051105
0.017,1.792775,1.0,2168.6724065304074,0.17506402842141994,1.3358729518234276,0.872328929818161,0.28834955,0.640272194621867
0.0175,1.7923437500000001,1.0,2206.5817304685497,0.17969126770693775,1.33529329115525,0.8778392529272028,0.2883314375,0.6415127835021708
0.018000000000000002,1.7919,1.0,2242.4695129150746,0.18429255179797435,1.3347315456101074,0.8829832620971283,0.2883128,0.642712985884785
0.0185,1.79144375,1.0,2276.4110898549393,0.18886802564550137,1.3341864017270848,0.8877920698185195,0.2882936375,0.6438757936884678
0.019,1.790975,1.0,2308.489172590106,0.1934178342004904,1.3336565460452674,0.8922936328234352,0.28827395,0.6450041750036428
0.0195,1.79049375,1.0,2338.783925126144,0.19794212119498503,1.3331407563655178,0.896513134458372,0.2882537375,0.6461008815312843
0.02,1.79,1.0,2367.3851496508864,0.20244103157973045,1.3326377742906816,0.9004732700107607,0.288233,0.6471687216675432
0.0205,1.78949375,1.0,2394.367957712526,0.20691470788338545,1.3321465373345758,0.9041945754268259,0.2882117375,0.6482100693133013
0.021,1.788975,1.0,2419.7942881593303,0.21136329021733383,1.3316661542996961,0.9076956589369866,0.28818995000000003,0.6492269199363845
0.021500000000000002,1.78844375,1.0,2443.7299026234036,0.21578691869295943,1.3311957339885394,0.910993375612954,0.2881676375,0.6502212557008694
0.022,1.7879,1.0,2466.244068317166,0.22018573342164605,1.3307343852036018,0.9141030167269151,0.2881448,0.6511950460586593
0.0225,1.78734375,1.0,2487.405722793251,0.22455987389126916,1.3302812504126906,0.9170384827971593,0.28812143749999997,0.652150177378283
0.023,1.786775,1.0,2507.2787469580912,0.22890947849615098,1.3298355472359629,0.9198124374253563,0.28809755,0.6530883666439825
0.0235,1.78619375,1.0,2525.940056331163,0.23323468764198563,1.3293963937020716,0.9224364042062688,0.28807313749999996,0.654011530025733
0.024,1.7856,1.0,2543.4383590345888,0.2375356362733352,1.328963196236383,0.9249209506925709,0.2880482,0.6549209678633385
0.0245,1.78499375,1.0,2559.824158581061,0.2418124593347618,1.3285353612642632,0.9272757350841554,0.2880227375,0.6558179732109697
0.025,1.784375,1.0,2575.1496051021873,0.24606529177082753,1.3281122952110789,0.9295095969399688,0.28799675,0.6567038320513963
0.025500000000000002,1.78374375,1.0,2589.4683543889932,0.2502942685260945,1.327693404502196,0.9316306377376634,0.2879702375,0.6575798234877557
0.026000000000000002,1.7831000000000001,1.0,2602.830871900038,0.2544995234895533,1.3272781380346967,0.9336462989393506,0.2879432,0.6584471312644834
0.0265,1.78244375,1.0,2615.2851375494924,0.25868119005848644,1.3268659789622799,0.9355634239542238,0.2879156375,0.6593068615976736
0.027,1.781775,1.0,2626.890353597974,0.2628394035669998,1.3264563162885739,0.9373882956943441,0.28788755,0.6601603110819344
0.0275,1.7810937500000001,1.0,2637.6828700632777,0.2669742935323202,1.326048760001141,0.9391267334094751,0.2878589375,0.6610083102733366
0.028,1.7804,1.0,2647.6997958919856,0.2710859894716746,1.3256429200875444,0.9407841043736191,0.2878298,0.661851685576713
0.0285,1.77969375,1.0,2656.978933616901,0.2751746209022899,1.3252384065353466,0.942365364910057,0.2878001375,0.6626912592932035
0.029,1.778975,1.0,2665.558717387067,0.27924031734139293,1.3248348293321102,0.9438750971984239,0.28776995,0.6635278496580959
0.029500000000000002,1.7782437500000001,1.0,2673.478154369689,0.2832832083062107,1.324431798465398,0.945317542343407,0.2877392375,0.6643622708689649
0.03,1.7775,1.0,2680.771402536413,0.28730342054033264,1.324028973148026,0.9466966357106021,0.287708,0.6651952313795788
0.0305,1.77674375,1.0,2687.47741827685,0.29130108476400046,1.3236259726595705,0.9480160238245707,0.2876762375,0.666027518559142
0.031,1.775975,1.0,2693.625775715879,0.295276326937007,1.3232225059342395,0.9492791025732571,0.28764395,0.6668597310509902
0.0315,1.7751937500000001,1.0,2699.243088847631,0.2992292711976698,1.3228183119846788,0.9504890315800022,0.2876111375,0.6676924025744981
0.032,1.7744,1.0,2704.356257285071,0.3031600416843063,1.3224131298235344,0.951648750623027,0.2875778,0.6685260641498494
0.0325,1.77359375,1.0,2708.9924385580553,0.3070687625352343,1.3220066984634524,0.9527609976199193,0.2875439375,0.6693612440837604
0.033,1.772775,1.0,2713.179021920645,0.31095555788877116,1.3215987569170784,0.95382832493415,0.28750955,0.6701984679508608
0.0335,1.7719437500000002,1.0,2716.9417387230133,0.3148205498812664,1.3211890611878445,0.9548531155687863,0.2874746375,0.6710382237668082
0.034,1.7711000000000001,1.0,2720.3022496701487,0.31866385661262,1.3207774059743482,0.9558375983972752,0.2874392,0.6718809177817864
0.0345,1.7702437500000001,1.0,2723.294442690701,0.32248561306650514,1.320363476068392,0.9567838492332402,0.2874032375,0.672727178575819
0.035,1.7693750000000001,1.0,2725.9349640723076,0.3262859368190726,1.3199471145086135,0.9576938227880243,0.28736675,0.6735773084107531
0.035500000000000004,1.76849375,1.0,2728.240564521615,0.33006494544647286,1.3195281643336496,0.9585693493872511,0.2873297375,0.6744316077728578
0.036000000000000004,1.7676,1.0,2730.228088253902,0.3338227565248565,1.3191064685821376,0.959412144309957,0.2872922,0.6752903753476951
0.0365,1.76669375,1.0,2731.9144626294315,0.33755948763037413,1.3186818702927152,0.9602238163248475,0.2872541375,0.6761539079934217
0.037,1.765775,1.0,2733.316688335419,0.3412752563391764,1.3182542125040195,0.9610058755009286,0.28721555,0.6770225007125203
0.0375,1.76484375,1.0,2734.4518301151843,0.3449701802274138,1.3178233382546878,0.9617597403615864,0.2871764375,0.677896446621959
0.038,1.7639,1.0,2735.337008042494,0.34864437687123706,1.3173890905833574,0.9624867444439469,0.28713679999999997,0.6787760369217772
0.0385,1.76294375,1.0,2735.98938934299,0.3522979638467967,1.3169513125286656,0.9631881423189381,0.28709663750000003,0.679661560862105
0.039,1.761975,1.0,2736.4254958449837,0.3559310575955816,1.316509853346995,0.9638651154750432,0.28705595,0.6805532931577287
0.0395,1.7609937500000001,1.0,2736.65225893432,0.3595437620534257,1.3160646496474981,0.9645187825961431,0.2870147375,0.6814513304949115
0.04,1.76,1.0,2736.6930876592514,0.3631362121350204,1.3156154886938949,0.9651501907856415,0.286973,0.6823560691853122
0.0405,1.7589937500000001,1.0,2736.557049085555,0.36670851777149477,1.3151622881384786,0.9657603347521181,0.2869307375,0.6832676407376231
0.041,1.757975,1.0,2736.2532271246314,0.3702607888939778,1.3147049656335419,0.9663501535544832,0.28688795,0.6841861754004822
0.0415,1.75694375,1.0,2735.7907196773563,0.3737931354335983,1.3142434388313777,0.9669205342901835,0.2868446375,0.6851118021410401
0.042,1.7559,1.0,2735.1786359282814,0.3773056673214854,1.3137776253842788,0.9674723155022639,0.28680079999999997,0.686044648623097
0.0425,1.75484375,1.0,2734.4260937900867,0.380798494488768,1.3133074429445382,0.9680062903293825,0.2867564375,0.6869848411848054
0.043000000000000003,1.753775,1.0,2733.542217498082,0.38427172686657507,1.3128328091644488,0.9685232094205939,0.28671155,0.6879325048159426
0.043500000000000004,1.75269375,1.0,2732.536135356111,0.38772547438603566,1.3123536416963035,0.9690237836346595,0.28666613750000003,0.6888877631347489
0.044,1.7516,1.0,2731.4169776312897,0.39115984697827855,1.311869858192395,0.9695086865418222,0.2866202,0.6898507383643347
0.0445,1.75049375,1.0,2730.1938746004744,0.3945749545744329,1.3113813763050166,0.9699785567443145,0.2865737375,0.6908215513086532
0.045,1.7493750000000001,1.0,2728.875954746226,0.3979709071056277,1.310888113686461,0.9704340000303947,0.28652675,0.6918003213280425
0.0455,1.74824375,1.0,2727.469939613372,0.4013478136200511,1.3103900098439598,0.9708755928972762,0.2864792375,0.6927871230518703
0.046,1.7471,1.0,2725.977765409863,0.40470577918403483,1.3098870477884825,0.9713038854930011,0.2864312,0.6937819439188098
0.0465,1.7459437500000001,1.0,2724.4075419921196,0.4080449092114273,1.3093791543818323,0.9717193964739748,0.28638263750000004,0.6947848814859132
0.047,1.744775,1.0,2722.7672774790026,0.4113653091306721,1.3088662573604477,0.9721226189788683,0.28633355,0.6957960301790488
0.0475,1.74359375,1.0,2721.047905541944,0.4146670836079734,1.308348439841474,0.972514033036901,0.28628393750000003,0.6968151774468396
0.048,1.7424,1.0,2719.287491459515,0.4179503385316943,1.307825355862561,0.9728940653813898,0.2862338,0.6978429537247695
0.0485,1.7411937888653655,1.0,2717.4858417043233,0.42121517761336175,1.3072970251065938,0.9732631474955035,0.28618313913234533,0.6988792677316245
0.049,1.7399822745804023,1.0,2715.9647631149164,0.424461703275475,1.3067637481213272,0.9736217094679677,0.28613225553237687,0.6999234784392695
0.0495,1.7387707602954392,1.0,2714.95382004448,0.4276900179405333,1.3062258254545163,0.9739701611001806,0.28608137193240846,0.7009749484206
0.05,1.7375592460104763,1.0,2714.4197542448123,0.43090022403103573,1.305683557653916,0.9743088930550902,0.28603048833244,0.7020330439414699
0.0505,1.7363477317255132,1.0,2714.331014075427,0.4340924230301161,1.3051372310291143,0.9746382768841374,0.2859796047324715,0.7030971627547351
0.051000000000000004,1.73513621744055,1.0,2714.643879981131,0.4372667172537173,1.3045872438596173,0.9749586745333104,0.2859287211325031,0.704166488769139
0.051500000000000004,1.733924703155587,1.0,2715.326929121233,0.44042320670531043,1.3040338831435547,0.9752704240975423,0.28587783753253465,0.7052404269791177
0.052000000000000005,1.732713188870624,1.0,2716.353023155043,0.44356199045533967,1.3034773974265745,0.9755738459522587,0.2858269539325662,0.7063184606224264
0.0525,1.7315016745856608,1.0,2717.6950716683646,0.4466831675742492,1.3029180352543248,0.9758692462447792,0.2857760703325978,0.7074000762680474
0.053,1.730290160300698,1.0,2719.326015637359,0.44978683713248313,1.3023560451724534,0.976156917655886,0.2857251867326293,0.7084847638637541
0.0535,1.7290786460157348,1.0,2721.2283357357323,0.4528730939697095,1.301791589030296,0.9764371343438027,0.28567430313266085,0.7095721836433958
0.054,1.7278671317307719,1.0,2723.3665935197455,0.45594204205062844,1.3012249918967254,0.9767101695051762,0.28562341953269244,0.7106616844924036
0.0545,1.7266556174458088,1.0,2725.720555513541,0.45899377878929365,1.3006564403344139,0.9769762756497263,0.28557253593272397,0.7117528854765276
0.055,1.7254441031608456,1.0,2728.2760825216224,0.46202839881397495,1.3000860654231168,0.9772356910216545,0.2855216523327555,0.7128455144734467
0.0555,1.7242325888758827,1.0,2731.0190315441964,0.46504599675294217,1.2995139982425892,0.977488643880019,0.2854707687327871,0.7139393012013339
0.056,1.7230210745909196,1.0,2733.9352506681043,0.46804666723446514,1.2989403698725865,0.977735353003055,0.28541988513281863,0.7150339772335497
0.0565,1.7218095603059564,1.0,2737.0105743399504,0.47103050488681375,1.2983653113928642,0.9779760281630812,0.28536900153285016,0.7161292760122424
0.057,1.7205980460209935,1.0,2740.2308190188674,0.47399760433825777,1.297788953883177,0.9782108705739307,0.28531811793288175,0.7172249328608515
0.0575,1.7193865317360304,1.0,2743.5817792108846,0.4769480602170671,1.2972114284232803,0.9784400733127046,0.2852672343329133,0.7183206849955145
0.058,1.7181750174510673,1.0,2747.0494527957276,0.4798819669414104,1.2966328640188656,0.9786638215829127,0.2852163507329448,0.7194162754590727
0.0585,1.7169635031661044,1.0,2750.6272950577527,0.48279941350635996,1.2960533218965553,0.9788822890006621,0.2851654671329764,0.7205115771492814
0.059000000000000004,1.7157519888811412,1.0,2754.298387497421,0.48570049985677666,1.2954729570519954,0.9790956484312134,0.28511458353300795,0.721606287152263
0.059500000000000004,1.714540474596178,1.0,2758.0563525664397,0.4885853156135938,1.2948918287980589,0.97930405991046,0.2850636999330395,0.722700284783598
0.06,1.7133289603112152,1.0,2761.8947989205362,0.4914539503977447,1.2943099964476183,0.9795076772825176,0.285012816333071,0.7237934502264123
0.0605,1.712117446026252,1.0,2765.8073204545335,0.4943064938301629,1.2937275193135471,0.9797066484887574,0.28496193273310255,0.7248856645341513
0.061,1.710905931741289,1.0,2769.787495415489,0.4971430355317816,1.2931444567087178,0.9799011158412179,0.28491104913313414,0.7259768096331336
0.0615,1.709694417456326,1.0,2773.8288855937017,0.49996366512353424,1.2925608679460032,0.9800912162813574,0.2848601655331657,0.7270667683248765
0.062,1.7084829031713629,1.0,2777.925035591785,0.5027684722263542,1.2919768123382767,0.9802770816250348,0.2848092819331972,0.7281554242881976
0.0625,1.7072713888863997,1.0,2782.0694721719074,0.5055575464611748,1.291392349198411,0.9804588387945482,0.2847583983332288,0.7292426620810948
0.063,1.7060598746014368,1.0,2786.2588121029803,0.5083309706549882,1.290807509874151,0.9806366081004949,0.28470751473326034,0.7303284190076391
0.0635,1.7048483603164737,1.0,2790.4876938368884,0.5110888346084064,1.290222343412524,0.9808105068756673,0.28465663113329187,0.7314126000769867
0.064,1.7036368460315106,1.0,2794.746864378792,0.5138312377199278,1.2896369336754685,0.9809806506470533,0.28460574753332346,0.7324950467189805
0.0645,1.7024253317465476,1.0,2799.033981095672,0.5165582636986628,1.2890513022463852,0.9811471465485008,0.284554863933355,0.7335757164211381
0.065,1.7012138174615845,1.0,2803.346694335108,0.5192699962537216,1.2884654707086742,0.98131009789578,0.28450398033338653,0.7346545669924203
0.0655,1.7000023031766214,1.0,2807.6826473242854,0.5219665190942143,1.287879460645736,0.9814696043509176,0.2844530967334181,0.735731556563521
0.066,1.6987907888916585,1.0,2812.039476079171,0.5246479159292513,1.287293293640971,0.9816257620783209,0.28440221313344966,0.7368066435871266
0.0665,1.6975792746066953,1.0,2816.414809324544,0.5273142704679428,1.2867069912777789,0.9817786638931671,0.2843513295334812,0.7378797868381494
0.067,1.6963677603217322,1.0,2820.8062684239244,0.5299656664193989,1.2861205751395608,0.9819283994024866,0.2843004459335128,0.7389509454139251
0.0675,1.6951562460367693,1.0,2825.2114673198325,0.5326021874927299,1.2855340668097164,0.982075055139349,0.2842495623335443,0.7400200787343891
0.068,1.6939447317518062,1.0,2829.6280124847713,0.535223917397046,1.2849474878716465,0.9822187146905415,0.28419867873357585,0.7410871465422126
0.0685,1.692733217466843,1.0,2834.0535028821078,0.5378309398414575,1.284360859908751,0.9823594588180866,0.2841477951336074,0.7421521089029199
0.069,1.69152170318188,1.0,2838.4855299375495,0.5404233385350745,1.2837742045044307,0.9824973655749519,0.284096911533639,0.7432149262049668
0.0695,1.690310188896917,1.0,2842.9216775205145,0.5430011971870073,1.2831875432420854,0.9826325104152528,0.2840460279336705,0.744275559159796
0.07,1.6890986746119538,1.0,2847.36237715443,0.5455645796224812,1.2826008722950768,0.9827649639023168,0.28399514433370204,0.7453340145984111
0.07050000000000001,1.687887160326991,1.0,2851.8047376157756,0.5481135821664552,1.2820142173964637,0.9828947976316857,0.28394426073373363,0.746390246129656
0.07100000000000001,1.6866756460420278,1.0,2856.2457017068295,0.5506483003970485,1.2814276056739682,0.9830220808737273,0.28389337713376517,0.747444205244316
0.07150000000000001,1.6854641317570649,1.0,2860.6846946112446,0.5531688107711762,1.280841042130589,0.9831468785132528,0.2838424935337967,0.7484958834662143
0.07200000000000001,1.6842526174721018,1.0,2865.1211397776938,0.5556751897457538,1.2802545317693257,0.98326925335479,0.28379160993382824,0.7495452723939924
0.0725,1.6830411031871386,1.0,2869.5544589253877,0.5581675137776968,1.2796680795931779,0.9833892662033249,0.2837407263338598,0.7505923637010967
