Time [s],Phi [rad],STIM [ ],Fsee [N],Gamma [ ],Lcerel [ ],q [ ],Lmtc [m],fisomrel [ ]
0.0,1.8,1.0,19.37646904622288,0.0012116345750611906,1.3791848366352393,0.005376438190761234,0.288653,0.5415142208734277
0.0005,1.79999375,1.0,20.0306904946275,0.006814047572065603,1.3791120210637293,0.016609905170989203,0.2886527375,0.5416902917250461
0.001,1.799975,1.0,24.273778106349248,0.012385035452506589,1.3786749453396698,0.04214136843257349,0.28865195,0.5427464469770347
0.0015,1.79994375,1.0,35.805626830411924,0.017924774523767235,1.3776569871969704,0.07936439636123216,0.2886506375,0.5452015306801893
0.002,1.7999,1.0,62.304086595397024,0.0234334400114632,1.375823635017096,0.12498106867250142,0.2886488,0.549606490314211
0.0025,1.79984375,1.0,110.59510101466195,0.028911206250564186,1.3733068708407128,0.17566708589157198,0.28864643749999996,0.5556185592573832
0.003,1.7997750000000001,1.0,177.75865602727143,0.034358246552292276,1.3706010908711175,0.2286756914469566,0.28864354999999997,0.5620370900674034
0.0035,1.79969375,1.0,256.27285027102164,0.039774733263777604,1.3680229064165392,0.2819127480746931,0.2886401375,0.5681095036757756
0.004,1.7996,1.0,341.014857754192,0.045160837765616836,1.3656459786949715,0.33383302444958074,0.2886362,0.5736703388526673
0.0045000000000000005,1.7994937500000001,1.0,429.3596752867649,0.05051673048768838,1.363456830655267,0.3833810401920227,0.2886317375,0.5787599880421829
0.005,1.799375,1.0,519.7991220285351,0.05584258088053472,1.3614294823104396,0.42991615059353616,0.28862675,0.5834462031785959
0.0055,1.79924375,1.0,611.2761116959999,0.061138557470947597,1.3595420049575313,0.47311793862723633,0.2886212375,0.5877855442318831
0.006,1.7991000000000001,1.0,702.9478334878459,0.06640482779397482,1.357777794846662,0.5128951198182463,0.2886152,0.5918209487074612
0.006500000000000001,1.79894375,1.0,794.1333141996548,0.07164155855792288,1.3561237704079667,0.549309412646601,0.2886086375,0.5955862887449421
0.007,1.798775,1.0,884.2430357853906,0.07684891528130959,1.3545698616688455,0.5825180667455281,0.28860155,0.5991078226917594
0.0075,1.79859375,1.0,972.832255207757,0.08202706303845698,1.3531070117299395,0.6127313869111279,0.2885939375,0.6024089230457665
0.008,1.7984,1.0,1059.5083390340524,0.08717616537699224,1.35172798850647,0.6401848783976098,0.2885858,0.6055083612920682
0.0085,1.79819375,1.0,1143.9687880008585,0.09229638519358574,1.3504262469571924,0.6651198697677204,0.2885771375,0.6084229765417628
0.009000000000000001,1.797975,1.0,1226.0053051950144,0.0973878849090785,1.3491955701704768,0.6877716429046487,0.28856795,0.6111685388179708
0.0095,1.79774375,1.0,1305.4352422297059,0.10245082520269855,1.3480307677064582,0.7083630069022461,0.2885582375,0.613758242122619
0.01,1.7975,1.0,1382.1352615840735,0.10748536617794494,1.3469269713771164,0.727100327374343,0.288548,0.6162043256731553
0.0105,1.79724375,1.0,1456.041039424003,0.11249166767879033,1.3458794987846996,0.7441720346560434,0.2885372375,0.6185184066340721
0.011,1.796975,1.0,1527.1021990716526,0.11746988786225968,1.344884294853089,0.7597487456723256,0.28852595000000003,0.6207105330474731
0.0115,1.79669375,1.0,1595.2978024487609,0.12242018388006058,1.3439376061888972,0.7739837850125401,0.2885141375,0.622789933192127
0.012,1.7964,1.0,1660.6369064825487,0.127342712250312,1.3430358860518532,0.7870142812593067,0.28850180000000003,0.6247652451550383
0.0125,1.79609375,1.0,1723.1714536970728,0.13223762994566185,1.3421755781848503,0.7989624314639164,0.2884889375,0.6266450054013502
0.013000000000000001,1.7957750000000001,1.0,1782.9300068936332,0.1371050911640121,1.3413538196766441,0.8099372071925051,0.28847555,0.6284361281637918
0.0135,1.79544375,1.0,1839.9525872538816,0.14194524929312288,1.3405679615245678,0.8200355219052172,0.2884616375,0.6301449731600781
0.014,1.7951000000000001,1.0,1894.3061477979102,0.14675825772075443,1.3398153547259544,0.8293434661105606,0.2884472,0.6317778210856946
0.0145,1.79474375,1.0,1946.0648463826944,0.1515442687400734,1.3390935372066974,0.8379375975693971,0.2884322375,0.6333404752061547
0.015,1.794375,1.0,1995.3230672100453,0.15630343500434668,1.3384000603142086,0.8458859834769356,0.28841675,0.6348386453422833
0.0155,1.79399375,1.0,2042.1430388528122,0.1610359060144345,1.3377330183058966,0.853249364383397,0.2884007375,0.6362768123277707
0.016,1.7936,1.0,2086.599627611522,0.16574183108907792,1.3370905350727424,0.8600818511457893,0.2883842,0.6376593468251665
0.0165,1.7931937500000001,1.0,2128.7803019207495,0.17042135939633096,1.3364707494932568,0.8664317061314805,0.2883671375,0.638990544437009
0.017,1.792775,1.0,2168.7729184279574,0.17507463894500425,1.3358719268730463,0.8723420672145403,0.28834955,0.6402743901102903
0.0175,1.7923437500000001,1.0,2206.6769739238025,0.17970181866636276,1.3352923283070453,0.8778515165929585,0.2883314375,0.6415148424057417
0.018000000000000002,1.7919,1.0,2242.5598875836367,0.18430304352990276,1.3347306393216551,0.882994726186683,0.2883128,0.6427149205973088
0.0185,1.79144375,1.0,2276.4971218120477,0.18887845850512042,1.3341855454432778,0.8878028006678366,0.2882936375,0.6438776186759532
0.019,1.790975,1.0,2308.5715149211173,0.19342820856151205,1.3336557321983147,0.8923036898550333,0.28827395,0.6450059067959392
0.0195,1.79049375,1.0,2338.862069366038,0.19795243729667905,1.3331399890293454,0.8965225739080105,0.2882537375,0.6461025118288509
0.02,1.79,1.0,2367.4606058671575,0.2024512899545009,1.3326370378386205,0.9004821382487973,0.288233,0.647170283985804
0.0205,1.78949375,1.0,2394.4401295407883,0.20692490875027125,1.332145836918079,0.9042029188161779,0.2882117375,0.6482115529910359
0.021,1.788975,1.0,2419.8629320702703,0.21137343383691126,1.3316654916300263,0.9077035187222467,0.28818995000000003,0.649228321625679
0.021500000000000002,1.78844375,1.0,2443.7951357798,0.21579700536734214,1.3311951073367685,0.9110007884853965,0.2881676375,0.650222579324574
0.022,1.7879,1.0,2466.3063752065927,0.220195763494485,1.3307337894006115,0.9141100153221995,0.2881448,0.6511963027701275
0.0225,1.78734375,1.0,2487.465231564166,0.22456984758221676,1.3302806837919774,0.9170450974098522,0.28812143749999997,0.6521513708989282
0.023,1.786775,1.0,2507.3375523250947,0.2289193964147592,1.3298349895361656,0.9198186922954882,0.28809755,0.6530895397885125
0.0235,1.78619375,1.0,2525.9967903477013,0.23324454998679756,1.3293958576376919,0.9224423273897391,0.28807313749999996,0.6540126561579382
0.024,1.7856,1.0,2543.492149169355,0.23754544328082705,1.3289626897391167,0.9249265669685054,0.2880482,0.6549220304834364
0.0245,1.78499375,1.0,2559.874636066393,0.24182221127934295,1.3285348874829999,0.927281066291961,0.2880227375,0.6558189659009331
0.025,1.784375,1.0,2575.196912010194,0.24607498896484054,1.328111852511902,0.9295146622788191,0.28799675,0.656704758422219
0.025500000000000002,1.78374375,1.0,2589.513149561728,0.250303911319815,1.327692986468383,0.9316354540328543,0.2879702375,0.6575806971282911
0.026000000000000002,1.7831000000000001,1.0,2602.873258112296,0.25450911198024767,1.3272777434981453,0.9336508823742738,0.2879432,0.6584479547537061
0.0265,1.78244375,1.0,2615.326995840326,0.2586907248910875,1.3268655902684845,0.9355677870518603,0.2879156375,0.6593076718700103
0.027,1.781775,1.0,2626.9311565293906,0.2628488850196054,1.3264559382326184,0.9373924532843805,0.28788755,0.6601610981908828
0.0275,1.7810937500000001,1.0,2637.7222196714056,0.2669837218783791,1.3260483961574234,0.9391306989795877,0.2878589375,0.6610090668468491
0.028,1.7804,1.0,2647.7374251380775,0.27109536497998626,1.3256425728097767,0.9407878901934127,0.2878298,0.6618524068043026
0.0285,1.77969375,1.0,2657.0147076082194,0.2751839438370047,1.3252380769565546,0.9423689821422223,0.2878001375,0.6626919429132726
0.029,1.778975,1.0,2665.5926343884544,0.279249587962012,1.3248345173646343,0.9438785559985476,0.28776995,0.6635284959454244
0.029500000000000002,1.7782437500000001,1.0,2673.510346627725,0.28329242686758604,1.3244315028008924,0.9453208519496998,0.2877392375,0.664362882622304
0.03,1.7775,1.0,2680.8010857691,0.2873125873430956,1.3240287008982814,0.9466998058258097,0.287708,0.6651957939865182
0.0305,1.77674375,1.0,2687.5052408577376,0.29131019997507757,1.32362571779395,0.9480190617022153,0.2876762375,0.6660280445865772
0.031,1.775975,1.0,2693.6533091888737,0.2952853910240982,1.3232222540049658,0.9492820139791835,0.28764395,0.6668602503697365
0.0315,1.7751937500000001,1.0,2699.271172558452,0.2992382845539097,1.3228180552883002,0.9504918226839144,0.2876111375,0.6676929310582906
0.032,1.7744,1.0,2704.3849946522787,0.30316900462826446,1.3224128674009243,0.9516514279626256,0.2875778,0.6685266037446237
0.0325,1.77359375,1.0,2709.021194084508,0.30707767531091473,1.3220064360998096,0.9527635680683558,0.2875439375,0.6693617828772298
0.033,1.772775,1.0,2713.2064188678714,0.3109644206656128,1.3215985071419276,0.9538307956705113,0.28750955,0.6701989802426134
0.0335,1.7719437500000002,1.0,2716.967522318377,0.31482936475611095,1.32118882628425,0.954855492660655,0.2874746375,0.6710387049430673
0.034,1.7711000000000001,1.0,2720.325632583181,0.31867262237692595,1.3207771930739474,0.9558398871689465,0.2874392,0.6718813533278045
0.0345,1.7702437500000001,1.0,2723.3160293773462,0.3224943294342868,1.3203632796305274,0.9567860535299849,0.2874032375,0.6727275799246573
0.035,1.7693750000000001,1.0,2725.9554377549234,0.3262946037070643,1.319946928289273,0.9576959461853438,0.28736675,0.6735776883873048
0.035500000000000004,1.76849375,1.0,2728.260633445094,0.3300735629097423,1.3195279818729544,0.9585713952447233,0.2873297375,0.6744319795924647
0.036000000000000004,1.7676,1.0,2730.248485456692,0.3338313247568048,1.3191062832043414,0.9594141157858213,0.2872922,0.6752907526132355
0.0365,1.76669375,1.0,2731.935945723259,0.33756800696273553,1.318681675106204,0.960225716389442,0.2872541375,0.6761543046922953
0.037,1.765775,1.0,2733.34003929534,0.34128372724201855,1.318254000401312,0.9610077069490841,0.28721555,0.6770229312135261
0.0375,1.76484375,1.0,2734.4778550807932,0.3449786033091377,1.3178231019124351,0.961761505824065,0.2871764375,0.6778969256720596
0.038,1.7639,1.0,2735.366537132731,0.34865275287857683,1.3173888224623436,0.9624884463980099,0.28713679999999997,0.6787765796427518
0.0385,1.76294375,1.0,2736.023276485534,0.3523062936648199,1.316951004873807,0.9631897830981146,0.28709663750000003,0.6796621827470792
0.039,1.761975,1.0,2736.4621006907096,0.35593934255903514,1.316509521045196,0.9638666994503923,0.28705595,0.6805539639277443
0.0395,1.7609937500000001,1.0,2736.697172262844,0.35955201376809853,1.3160642419378112,0.9645203098786453,0.2870147375,0.6814521523223109
0.04,1.76,1.0,2736.7411036006724,0.3631444208801414,1.3156150528229964,0.9651516662155766,0.286973,0.6823569465291365
0.0405,1.7589937500000001,1.0,2736.6031716332086,0.36671667710255884,1.3151618694446272,0.9657617633912395,0.2869307375,0.6832684822964533
0.041,1.757975,1.0,2736.292671114618,0.3702688956427456,1.3147046075465794,0.9663515406459507,0.28688795,0.6841868940974282
0.0415,1.7569486817345503,1.0,2736.061954979716,0.37380118893985675,1.3142432035371177,0.9669218868481235,0.2868448446328511,0.6851122736949288
0.042,1.7559222854890393,1.0,2736.2556167628845,0.3773136694619851,1.3137779115796702,0.9674736687583656,0.28680173599053965,0.6860440759078467
0.0425,1.7548958892435285,1.0,2736.8448830556645,0.3808064475976233,1.3133090284875615,0.9680077091342913,0.2867586273482282,0.6869816730490446
0.043000000000000003,1.7538694929980174,1.0,2737.7973420658805,0.3842796336923717,1.312836849583749,0.968524786299581,0.2867155187059167,0.6879244436942435
0.043500000000000004,1.7528430967525066,1.0,2739.081647843426,0.3877333377774343,1.3123616610110955,0.9690256363373797,0.2866724100636053,0.6888717880433337
0.044,1.7518167005069958,1.0,2740.667870742561,0.3911676697417349,1.3118837363795735,0.9695109555424568,0.28662930142129384,0.6898231345086631
0.0445,1.7507903042614847,1.0,2742.531008672897,0.39458273802426547,1.3114033047825284,0.9699814002595256,0.28658619277898234,0.6907780030947694
0.045,1.749763908015974,1.0,2744.648713748266,0.3979786501811757,1.310920571346127,0.9704375910619379,0.2865430841366709,0.6917359640108355
0.0455,1.748737511770463,1.0,2746.9986405841423,0.4013555137686154,1.3104357411965353,0.970880116901658,0.28649997549435946,0.6926965898844317
0.046,1.747711115524952,1.0,2749.5685964198296,0.404713430631558,1.3099489274457914,0.9713095294167388,0.28645686685204796,0.6936596376760318
0.0465,1.7466847192794412,1.0,2752.3231285530187,0.40805251667628506,1.3094604537859191,0.9717263700827123,0.2864137582097365,0.6946244500721078
0.047,1.7456583230339304,1.0,2755.247792587841,0.41137287633801634,1.3089704533870916,0.9721311382728226,0.2863706495674251,0.6955907491510684
0.0475,1.7446319267884194,1.0,2758.3307624846957,0.41467461256090576,1.3084790356103746,0.9725243070935159,0.2863275409251136,0.696558305449277
0.048,1.7436055305429086,1.0,2761.5601992366855,0.41795782828910716,1.3079863098168336,0.9729063267995026,0.28628443228280215,0.6975268908335759
0.0485,1.7425791342973977,1.0,2764.9242475645615,0.4212226264667743,1.3074923853675344,0.9732776261120882,0.2862413236404907,0.6984962785107899
0.049,1.7415527380518867,1.0,2768.411032878483,0.424469110038061,1.3069973716235423,0.9736386134498181,0.2861982149981792,0.6994662430364689
0.0495,1.7405263418063759,1.0,2772.0086585039608,0.42769738194712104,1.3065013779459231,0.9739896780780065,0.28615510635586777,0.7004365603228648
0.05,1.7394999455608648,1.0,2775.705203173092,0.43090754513810825,1.3060045136957423,0.9743311911831891,0.28611199771355633,0.7014070076461487
0.0505,1.738473549315354,1.0,2779.4887187812333,0.43409970255517655,1.3055068882340655,0.974663506878031,0.28606888907124484,0.7023773636528643
0.051000000000000004,1.7374471530698432,1.0,2783.3537702800845,0.4372739506046736,1.305008552036859,0.9749869585773262,0.2860257804289334,0.7033475229093706
0.051500000000000004,1.7364207568243322,1.0,2787.2865169762276,0.44043039804067685,1.3045096310795758,0.9753018708901752,0.28598267178662196,0.7043172339916475
0.052000000000000005,1.7353943605788213,1.0,2791.280995367378,0.44356914331443165,1.3040101802020856,0.97560854826129,0.28593956314431046,0.7052863849920136
0.0525,1.7343679643333105,1.0,2795.33215419625,0.4466902837539869,1.303510245911612,0.9759072810319925,0.285896454501999,0.7062548808248498
0.053,1.7333415680877995,1.0,2799.434928850709,0.44979391668739155,1.3030098747153782,0.9761983468279241,0.2858533458596876,0.7072226269928916
0.0535,1.7323151718422887,1.0,2803.5842408895837,0.45288013944269456,1.3025091131206081,0.9764820112262144,0.28581023721737614,0.708189529588594
0.054,1.7312887755967779,1.0,2807.7749976159,0.45594904934794483,1.302008007634525,0.9767585283821733,0.2857671285750647,0.7091554952953592
0.0545,1.7302623793512668,1.0,2812.002091698407,0.45900074373119126,1.3015066047643526,0.9770281416182878,0.2857240199327532,0.7101204313886238
0.055,1.729235983105756,1.0,2816.260400841256,0.46203531992048286,1.3010049510173138,0.977291083978084,0.28568091129044176,0.7110842457368128
0.0555,1.7282095868602452,1.0,2820.5447875005657,0.4650528752438685,1.3005030929006327,0.9775475787472312,0.2856378026481303,0.7120468468021484
0.056,1.7271831906147341,1.0,2824.8566055278725,0.46805348846704037,1.30000101878327,0.9777978348446957,0.2855946940058188,0.713008254875638
0.0565,1.7261567943692233,1.0,2829.1846131962893,0.4710372803649301,1.2994988295262135,0.9780420629374108,0.2855515853635074,0.7139682752309569
0.057,1.7251303981237123,1.0,2833.526376258789,0.4740043440258157,1.2989965471099905,0.9782804580708117,0.2855084767211959,0.7149268648479058
0.0575,1.7241040018782015,1.0,2837.880242609716,0.47695477009899095,1.2984941864761075,0.9785132068025242,0.28546536807888445,0.7158839943876492
0.058,1.7230776056326906,1.0,2842.2445550446632,0.4798886492337495,1.297991762566071,0.9787404882257115,0.285422259436573,0.7168396347026988
0.0585,1.7220512093871796,1.0,2846.617651237132,0.48280607207938525,1.2974892903213882,0.9789624743276748,0.28537915079426157,0.7177937568369797
0.059000000000000004,1.7210248131416688,1.0,2850.997863720116,0.4857071292851919,1.2969867846835657,0.9791793303284887,0.2853360421519501,0.7187463320258847
0.059500000000000004,1.719998416896158,1.0,2855.383519872828,0.4885919115004631,1.2964842605941098,0.9793912150009355,0.28529293350963864,0.7196973316963138
0.06,1.718972020650647,1.0,2859.7729419116126,0.49146050937449265,1.2959817329945276,0.979598280972905,0.2852498248673272,0.720646727466697
0.0605,1.717945624405136,1.0,2864.164446886442,0.4943130135565743,1.2954792168263256,0.9798006750133543,0.2852067162250157,0.7215944911470066
0.061,1.7169192281596253,1.0,2868.55634668263,0.4971495146960019,1.2949767270310109,0.9799985383028365,0.28516360758270426,0.7225405947387517
0.0615,1.7158928319141142,1.0,2872.9469480265902,0.4999701034420691,1.2944742785500898,0.9801920066895461,0.2851204989403928,0.7234850104349622
0.062,1.7148664356686034,1.0,2877.3345524972174,0.5027748704440697,1.2939718863250693,0.9803812109317598,0.2850773902980813,0.7244277106201548
0.0625,1.7138400394230926,1.0,2881.7174565422806,0.5055639063512973,1.293469565297456,0.9805662769274928,0.2850342816557699,0.7253686678702878
0.063,1.7128136431775816,1.0,2886.0958760214385,0.5083372805351235,1.2929673133967705,0.9807473234924735,0.28499117301345844,0.7263078867381328
0.0635,1.7117872469320707,1.0,2890.4685651840637,0.5110950902629133,1.292465141469354,0.9809244678123756,0.28494806437114695,0.7272453476572409
0.064,1.71076085068656,1.0,2894.832799926905,0.5138374479757978,1.2919630733773786,0.9810978245489994,0.2849049557288355,0.7281810069643988
0.0645,1.7097344544410489,1.0,2899.1883040327834,0.5165644360780551,1.291461111322246,0.9812675010000512,0.28486184708652407,0.7291148615650551
0.065,1.708708058195538,1.0,2903.5348006081017,0.5192761369739634,1.290959257505357,0.98143360063876,0.28481873844421257,0.7300469083926383
0.0655,1.707681661950027,1.0,2907.8720120880394,0.5219726330678007,1.2904575141281132,0.9815962232780528,0.28477562980190113,0.7309771444085362
0.066,1.7066552657045162,1.0,2912.1996602418235,0.5246540067638451,1.2899558833919158,0.9817554652265458,0.2847325211595897,0.7319055666020846
0.0665,1.7056288694590054,1.0,2916.5174661780707,0.5273203404663749,1.2894543674981662,0.9819114194368137,0.2846894125172782,0.7328321719905502
0.067,1.7046024732134943,1.0,2920.825150350742,0.529971716579668,1.2889529686482657,0.9820641756463757,0.28464630387496676,0.7337569576191147
0.0675,1.7035760769679835,1.0,2925.1224325644025,0.5326082175080027,1.2884516890436155,0.9822138205118,0.2846031952326553,0.734679920560859
0.068,1.7025496807224727,1.0,2929.409031979946,0.5352299256556571,1.287950530885617,0.9823604377363131,0.2845600865903438,0.7356010579167453
0.0685,1.7015232844769617,1.0,2933.684667120982,0.5378369234269091,1.2874494963756713,0.9825041081912672,0.2845169779480324,0.7365203668156025
0.069,1.7004968882314508,1.0,2937.9490558792727,0.5404292932260372,1.2869485877151798,0.9826449100318051,0.28447386930572094,0.7374378444141063
0.0695,1.69947049198594,1.0,2942.201915520925,0.5430071174573191,1.286447807105544,0.9827829188070352,0.28443076066340944,0.7383534878967635
0.07,1.698444095740429,1.0,2946.4429626929586,0.5455704785250333,1.2859471567481653,0.9829182075650151,0.284387652021098,0.7392672944758935
0.07050000000000001,1.6974176994949182,1.0,2950.6719134291693,0.5481194588334577,1.2854466388444443,0.9830508469528205,0.28434454337878656,0.7401792613916116
0.07100000000000001,1.6963913032494071,1.0,2954.8884831566406,0.5506541407868706,1.2849462555957831,0.9831809053119603,0.28430143473647507,0.7410893859118068
0.07150000000000001,1.6953649070038963,1.0,2959.092386702503,0.5531746067895498,1.2844460092035828,0.9833084487693868,0.2842583260941636,0.7419976653321279
0.07200000000000001,1.6943385107583855,1.0,2963.2833383003867,0.5556809392457738,1.2839459018692443,0.9834335413243306,0.2842152174518522,0.7429040969759615
