Time [s],Phi [rad],STIM [ ],Fsee [N],Gamma [ ],Lcerel [ ],q [ ],Lmtc [m],fisomrel [ ]
0.0,1.8,1.0,19.428634595217,0.0012340797768861994,1.3791792126802984,0.005390446558479057,0.288653,0.5415278210176946
0.0005,1.79999375,1.0,20.08834228061896,0.00683636687405674,1.3791059082659802,0.01668471366267309,0.2886527375,0.5417050711665377
0.001,1.799975,1.0,24.344645200525765,0.01240722957024341,1.378668119647766,0.04226848284769673,0.28865195,0.5427629310026315
0.0015,1.79994375,1.0,35.90519661956466,0.01794684413156004,1.3776490906410852,0.07953184786346208,0.2886506375,0.5452205495470709
0.002,1.7999,1.0,62.51456875571486,0.023455385835286634,1.3758109824667828,0.12517455826778756,0.2886488,0.5496368158716565
0.0025,1.79984375,1.0,110.89142642860084,0.0289330289757367,1.3732934987992136,0.1758748887584049,0.28864643749999996,0.5556503946244946
0.003,1.7997750000000001,1.0,178.11049464761481,0.03437994686921669,1.3705885652068441,0.22888830107914057,0.28864354999999997,0.5620666943173873
0.0035,1.79969375,1.0,256.6524442848601,0.039796311859530455,1.3680116501413406,0.28212295980930885,0.2886401375,0.5681359227048709
0.004,1.7996,1.0,341.4093347292901,0.04518229532351846,1.3656358373198765,0.3340356606296729,0.2886362,0.5736939874597986
0.0045000000000000005,1.7994937500000001,1.0,429.7602110538825,0.05053806767999315,1.3634476533156064,0.3835727902262118,0.2886317375,0.5787812605209783
0.005,1.799375,1.0,520.2044894401567,0.05586379839792248,1.3614210405350575,0.43009510729343015,0.28862675,0.5834656615387639
0.0055,1.79924375,1.0,611.6801318798725,0.06115965597358128,1.3595342460605695,0.47328336508385277,0.2886212375,0.587803335171103
0.006,1.7991000000000001,1.0,703.3467176373907,0.0664258079419694,1.3577706513472663,0.5130470036162768,0.2886152,0.591837248196916
0.006500000000000001,1.79894375,1.0,794.5264663527395,0.07166242102991885,1.356117145992123,0.5494481946166745,0.2886086375,0.5956013339618141
0.007,1.798775,1.0,884.6296695823153,0.07686966073303463,1.354563687849708,0.58264448496052,0.28860155,0.599121783349537
0.0075,1.79859375,1.0,973.2105049494849,0.08204769211467151,1.3531012532901696,0.6128463445644234,0.2885939375,0.6024218907044372
0.008,1.7984,1.0,1059.8776188614247,0.08719667875108549,1.3517226014325436,0.6402893262617406,0.2885858,0.6055204452854721
0.0085,1.79819375,1.0,1144.3273080266438,0.0923167834868833,1.350421213577572,0.6652147683697713,0.2885771375,0.6084342253661407
0.009000000000000001,1.797975,1.0,1226.352362226806,0.0974081687849774,1.3491908635268095,0.6878579059975406,0.28856795,0.6111790205019167
0.0095,1.79774375,1.0,1305.77128255199,0.10247099533274566,1.3480263512580835,0.7084414822918391,0.2885582375,0.613768044738473
0.01,1.7975,1.0,1382.459145591849,0.10750542320263057,1.346922834466202,0.7271718067461439,0.288548,0.6162134787179087
0.0105,1.79724375,1.0,1456.3527010001926,0.11251161210002804,1.3458756203132864,0.7442372307409295,0.2885372375,0.6185269619671534
0.011,1.796975,1.0,1527.4062406463024,0.11748972045375164,1.3448806002764075,0.7598082757195321,0.28852595000000003,0.6207186592888546
0.0115,1.79669375,1.0,1595.593052854505,0.12243990526165081,1.3439340959481374,0.7740382358191062,0.2885141375,0.6227976327944433
0.012,1.7964,1.0,1660.9227554986605,0.12736232299631978,1.343032555102348,0.7870641738319791,0.28850180000000003,0.6247725323340387
0.0125,1.79609375,1.0,1723.4435615480766,0.13225713051511442,1.3421724654146452,0.7990082476795711,0.2884889375,0.6266517981889779
0.013000000000000001,1.7957750000000001,1.0,1783.1917216628897,0.13712448245726527,1.3413508763902278,0.8099793410442979,0.28847555,0.6284425356748197
0.0135,1.79544375,1.0,1840.2049910676028,0.14196453197167588,1.3405651672757144,0.820074333801016,0.2884616375,0.630151042214492
0.014,1.7951000000000001,1.0,1894.54787688825,0.14677743220724992,1.3398127173177237,0.8293792862169714,0.2884472,0.6317835368276302
0.0145,1.79474375,1.0,1946.2956273019554,0.15156333550815682,1.3390910529541253,0.8379707153167979,0.2884322375,0.6333458475971383
0.015,1.794375,1.0,1995.5408721141255,0.15632239461284125,1.3383977448580129,0.8459166629993854,0.28841675,0.6348436424585817
0.0155,1.79399375,1.0,2042.354240860286,0.16105475951417667,1.3377307989287366,0.8532778125938549,0.2884007375,0.6362815926497363
0.016,1.7936,1.0,2086.8058827691493,0.16576057911251746,1.337088390889484,0.8601082682059941,0.2883842,0.6376639564015896
0.0165,1.7931937500000001,1.0,2128.979774623898,0.17044000230821799,1.3364686964634422,0.8664562815115435,0.2883671375,0.6389949499368367
0.017,1.792775,1.0,2168.9636391803874,0.1750931771380671,1.3358699821008313,0.8723649706328601,0.28834955,0.640278555878786
0.0175,1.7923437500000001,1.0,2206.8531736013315,0.17972025225416963,1.3352905470998675,0.8778729103505128,0.2883314375,0.6415186512291822
0.018000000000000002,1.7919,1.0,2242.727616713991,0.18432137387266592,1.334728957361404,0.8830147247536261,0.2883128,0.6427185111726638
0.0185,1.79144375,1.0,2276.6581670485116,0.1888966864607746,1.3341839425890463,0.8878215177927349,0.2882936375,0.6438810348075288
0.019,1.790975,1.0,2308.7232546370374,0.19344633448571436,1.3336542324863987,0.8923212384572883,0.28827395,0.6450090980354344
0.0195,1.79049375,1.0,2339.007933085839,0.19797046241470387,1.3331385567570664,0.8965390419777238,0.2882537375,0.6461055548527388
0.02,1.79,1.0,2367.5852472897277,0.20246921249746017,1.3326358213650478,0.9004976457786796,0.288233,0.6471728646198981
0.0205,1.78949375,1.0,2394.551285913977,0.20694273026707624,1.3321447581832155,0.9042175255859612,0.2882117375,0.6482138380465985
0.021,1.788975,1.0,2419.9675183730706,0.21139115569869352,1.3316644820003376,0.9077172807155087,0.28818995000000003,0.6492304572048716
0.021500000000000002,1.78844375,1.0,2443.896740733743,0.21581462842413984,1.3311941313018631,0.9110137630894505,0.2881676375,0.6502246409158299
0.022,1.7879,1.0,2466.405183398045,0.22021328807524304,1.330732844573241,0.9141222611057824,0.2881448,0.6511982956648357
0.0225,1.78734375,1.0,2487.562221914788,0.22458727428383102,1.3302797602999201,0.9170566663371413,0.28812143749999997,0.6521533161231738
0.023,1.786775,1.0,2507.432693131482,0.22893672484825178,1.3298340872512773,0.9198296329565309,0.28809755,0.653091437777796
0.0235,1.78619375,1.0,2526.0842555788913,0.23326177988151264,1.3293950312141696,0.9224526945215211,0.28807313749999996,0.6540143922557917
0.024,1.7856,1.0,2543.5740393281158,0.23756257643471057,1.328961918657419,0.92493639806708,0.2880482,0.6549236481926964
0.0245,1.78499375,1.0,2559.9519988948796,0.24183924893629602,1.3285341613651918,0.9272903971025127,0.2880227375,0.6558204872961421
0.025,1.784375,1.0,2575.2697263352015,0.24609193181471947,1.3281111711216527,0.929523526975786,0.28799675,0.6567061842639591
0.025500000000000002,1.78374375,1.0,2589.58031161715,0.2503207594984314,1.327692359710968,0.9316438853770997,0.2879702375,0.6575820069740357
0.026000000000000002,1.7831000000000001,1.0,2602.938210664946,0.2545258664158823,1.3272771389173028,0.9336589039393641,0.2879432,0.658449216652119
0.0265,1.78244375,1.0,2615.3880911300157,0.25870738384701836,1.326865022946554,0.9355754268132408,0.2879156375,0.659308854509403
0.027,1.781775,1.0,2626.983429183667,0.2628654480086961,1.326455453909249,0.9373997423503718,0.28788755,0.6601621065462571
0.0275,1.7810937500000001,1.0,2637.7709518714937,0.26700019179857154,1.3260479455619112,0.9391376531863354,0.2878589375,0.6610100038101308
0.028,1.7804,1.0,2647.78559758839,0.2711117438174959,1.3256421282330915,0.9407945268902762,0.2878298,0.6618533301014758
0.0285,1.77969375,1.0,2657.0629783302306,0.2752002326663206,1.3252376322513406,0.9423753200587861,0.2878001375,0.6626928653301714
0.029,1.778975,1.0,2665.639321079986,0.2792657869458969,1.32483408794521,0.9438846151226784,0.28776995,0.6635293855510317
0.029500000000000002,1.7782437500000001,1.0,2673.551412224212,0.283308535257076,1.3244311256432506,0.9453266534159636,0.2877392375,0.6643636629906038
0.03,1.7775,1.0,2680.836544998883,0.28732860620070927,1.3240283756740134,0.9467053649273095,0.287708,0.6651964660652436
0.0305,1.77674375,1.0,2687.531887010959,0.29132612797291113,1.3236254737061,0.9480243956611619,0.2876762375,0.666028548368949
0.031,1.775975,1.0,2693.666626562092,0.29530122369882833,1.3232221321524327,0.9492871393235472,0.28764395,0.6668605015524087
0.0315,1.7751937500000001,1.0,2699.2810172804675,0.2992540271042827,1.3228179653039092,0.9504967415441039,0.2876111375,0.6676931163171049
0.032,1.7744,1.0,2704.398120278092,0.3031846606058277,1.3224127475413832,0.9516561452089222,0.2875778,0.6685268502003072
0.0325,1.77359375,1.0,2709.0412353127354,0.3070932466200167,1.3220062532457078,0.9527680911053874,0.2875439375,0.6693621583885878
0.033,1.772775,1.0,2713.2338783699347,0.3109799075634029,1.3215982567977362,0.9538351342483116,0.28750955,0.6701994937010756
0.0335,1.7719437500000002,1.0,2716.9997603744678,0.31484476585253973,1.3211885325783217,0.95485965870105,0.2874746375,0.6710393065694655
0.034,1.7711000000000001,1.0,2720.362767029525,0.31868794390398053,1.3207768549683176,0.9558438910463194,0.2874392,0.6718820450147798
0.0345,1.7702437500000001,1.0,2723.346939785486,0.32250956413427867,1.3203629983485772,0.9567899126440026,0.2874032375,0.672728154620885
0.035,1.7693750000000001,1.0,2725.974772976454,0.3263097473478569,1.3199467524255006,0.9576996720422806,0.28736675,0.6735780472333399
0.035500000000000004,1.76849375,1.0,2728.2605774837184,0.3300886062402818,1.3195279823817379,0.9585749998293315,0.2873297375,0.6744319785556627
0.036000000000000004,1.7676,1.0,2730.2416473878598,0.33384627771555175,1.3191063453513217,0.9594175957492674,0.2872922,0.675290626136872
0.0365,1.76669375,1.0,2731.931579811968,0.3375828770594361,1.3186817147730074,0.9602290710106702,0.2872541375,0.6761542240731363
0.037,1.765775,1.0,2733.344037405587,0.3412985195577043,1.3182539640855504,0.9610109379698235,0.28721555,0.6770230049229375
0.0375,1.76484375,1.0,2734.49274108211,0.3449933204961256,1.3178229667277062,0.9617646172957155,0.2871764375,0.677897199682396
0.038,1.7639,1.0,2735.3914631105513,0.3486673951604693,1.3173885961382301,0.9624914445395916,0.28713679999999997,0.6787770377595774
0.0385,1.76294375,1.0,2736.054020563283,0.3523208588365049,1.316950725755878,0.9631926761645231,0.28709663750000003,0.6796627469477752
0.039,1.761975,1.0,2736.494269117821,0.35595382681000165,1.316509229019405,0.9638694950847633,0.28705595,0.6805545533977739
0.0395,1.7609937500000001,1.0,2736.726097215036,0.359566414366729,1.3160639793675666,0.9645230157596028,0.2870147375,0.6814526815890894
0.04,1.76,1.0,2736.763420571474,0.36315873679245614,1.3156148502391183,0.9651542888819379,0.286973,0.682357354300188
0.0405,1.7589937500000001,1.0,2736.6201770472508,0.36673090937295255,1.3151617150728154,0.9657643056977636,0.2869307375,0.6832687925776835
0.041,1.757975,1.0,2736.308441062553,0.3702830470212701,1.3147044643819483,0.9663540033983332,0.28688795,0.6841871814351754
0.0415,1.75694375,1.0,2735.842602494632,0.373815261209026,1.3142429677809166,0.9669242649370957,0.2868446375,0.6851127461742403
0.042,1.7559,1.0,2735.2333974434473,0.37732766282121427,1.3137771281422699,0.9674759276491256,0.28680079999999997,0.6860456436696096
0.0425,1.75484375,1.0,2734.4807161379904,0.38082036237164146,1.3133069468979366,0.9680097915877545,0.2867564375,0.6869858323517013
0.043000000000000003,1.753778060489195,1.0,2733.7366347661664,0.3842934703741141,1.312832425479846,0.9685266138903966,0.2867116785405462,0.687933270307387
0.043500000000000004,1.752711807616145,1.0,2733.436436528602,0.3877470968344843,1.3123536185724465,0.969027115683503,0.2866668959198781,0.6888878091986563
0.044,1.751645554743095,1.0,2733.564005528612,0.39118135175748386,1.3118709263116313,0.969512007364324,0.28662211329921,0.6898486139079243
0.0445,1.7505793018700448,1.0,2734.085118307844,0.3945963432606632,1.311384659785735,0.9699819550334837,0.28657733067854185,0.6908150307720728
0.045,1.7495130489969948,1.0,2734.968677391449,0.3979921790308296,1.3108951023972633,0.9704375882342076,0.28653254805787376,0.6917864646217959
0.0455,1.7484467961239445,1.0,2736.183783158054,0.4013689667070222,1.3104025362625402,0.9708795042681456,0.28648776543720567,0.6927623261536429
0.046,1.7473805432508944,1.0,2737.7021036832202,0.4047268132609014,1.3099072205252023,0.9713082684661027,0.2864429828165376,0.693742074828902
0.0465,1.7463142903778444,1.0,2739.4967658056776,0.4080658254878214,1.3094094012923831,0.9717244169295667,0.2863982001958695,0.6947251989537278
0.047,1.7452480375047943,1.0,2741.546386561644,0.41138610831990685,1.3089092749588358,0.972128455414491,0.2863534175752014,0.695711287769153
0.0475,1.744181784631744,1.0,2743.8295881018416,0.4146877666892824,1.3084070379193136,0.9725208649465412,0.28630863495453324,0.6966999329140149
0.048,1.743115531758694,1.0,2746.331094202627,0.4179709019422163,1.3079028312364678,0.9729020989245981,0.28626385233386514,0.6976908371064007
0.0485,1.7420492788856439,1.0,2749.0254327679704,0.42123562187708147,1.307396888308146,0.9732725962535668,0.28621906971319705,0.6986835237833842
0.049,1.7409830260125938,1.0,2751.8896675866345,0.42448203364164183,1.3068894193174065,0.9736327733199387,0.28617428709252896,0.6996775647672993
0.0495,1.7399167731395435,1.0,2754.912516809727,0.42771023761132443,1.3063805287196726,0.9739830189812957,0.2861295044718608,0.7006727411398402
0.05,1.7388505202664934,1.0,2758.082687370731,0.43092033416155634,1.3058703209703668,0.9743237040425258,0.2860847218511927,0.701668835298102
0.0505,1.7377842673934434,1.0,2761.3888718135895,0.4341124236677646,1.3053589005249122,0.9746551822586282,0.2860399392305246,0.7026656309637014
0.051000000000000004,1.7367180145203933,1.0,2764.8197453637436,0.43728660650537615,1.304846371838732,0.9749777912732406,0.2859951566098565,0.703662913191204
0.051500000000000004,1.7356517616473432,1.0,2768.363963240308,0.4404429830498182,1.304332839367249,0.9752918534975412,0.28595037398918843,0.7046604683758552
0.052000000000000005,1.734585508774293,1.0,2772.0101582104107,0.44358165367651764,1.3038184075658863,0.9755976769338037,0.2859055913685203,0.7056580842606155
0.0525,1.733519255901243,1.0,2775.7469383857447,0.44670271876090156,1.3033031808900666,0.9758955559475418,0.2858608087478522,0.7066555499424986
0.053,1.7324530030281928,1.0,2779.5653036567023,0.4498062758430157,1.3027872420117703,0.97618577034453,0.2858160261271841,0.707652697942939
0.0535,1.7313867501551428,1.0,2783.457104782609,0.45289242408957864,1.302270665750027,0.9764685874617168,0.285771243506516,0.7086493769994755
0.054,1.7303204972820925,1.0,2787.411836044071,0.45596126583624375,1.3017535479368596,0.9767442647215545,0.28572646088584785,0.7096453963887672
0.0545,1.7292542444090424,1.0,2791.424690065107,0.45901289591159095,1.30123593293417,0.9770130447264249,0.28568167826517976,0.7106406655270414
0.055,1.7281879915359923,1.0,2795.4908470206697,0.46204740914420034,1.3007178651038591,0.9772751598370404,0.28563689564451167,0.7116350944112793
0.0555,1.7271217386629423,1.0,2799.6054741695084,0.46506490036265197,1.3001993888078278,0.977530832691201,0.2855921130238436,0.7126285936205569
0.056,1.726055485789892,1.0,2803.7637254303977,0.4680654643955259,1.2996805484079774,0.9777802766921512,0.2855473304031755,0.7136210743172637
0.0565,1.724989232916842,1.0,2807.9607410024632,0.4710491960714021,1.2991613882662092,0.9780236964685499,0.2855025477825074,0.7146124482481966
0.057,1.7239229800437919,1.0,2812.191647028615,0.4740161902188607,1.298641952744424,0.9782612883079261,0.28545776516183924,0.715602627745527
0.0575,1.7228567271707418,1.0,2816.451555303204,0.4769665416664817,1.2981222862045232,0.9784932405653489,0.28541298254117115,0.7165915257276415
0.058,1.7217904742976917,1.0,2820.737365842087,0.47990033951482536,1.2976024168886553,0.9787197326520549,0.28536819992050305,0.7175790862947418
0.0585,1.7207242214246414,1.0,2825.0472131309825,0.4828176717049906,1.2970823619263863,0.9789409361494635,0.2853234172998349,0.718565274975254
0.059000000000000004,1.7196579685515914,1.0,2829.372024779916,0.48571865100542233,1.2965622027384085,0.9791570214969142,0.2852786346791668,0.7195499359277522
0.059500000000000004,1.7185917156785413,1.0,2833.710223784984,0.48860336564213114,1.2960419536319234,0.979368146772475,0.2852338520584987,0.7205330411026598
0.06,1.7175254628054912,1.0,2838.0602282899354,0.49147190384112766,1.2955216289141331,0.9795744639421661,0.2851890694378306,0.7215145626401065
0.0605,1.716459209932441,1.0,2842.420451559651,0.49432435382842277,1.295001242892239,0.9797761191440643,0.28514428681716253,0.7224944728700069
0.061,1.7153929570593909,1.0,2846.789301958693,0.4971608038300271,1.294480809873443,0.9799732529570948,0.28509950419649444,0.7234727443121208
0.0615,1.7143267041863408,1.0,2851.165182933864,0.4999813420719513,1.2939603441649472,0.9801660006554482,0.28505472157582634,0.7244493496761026
0.062,1.7132604513132907,1.0,2855.546493001731,0.502786056780206,1.2934398600739527,0.9803544924494957,0.2850099389551582,0.7254242618615403
0.0625,1.7121941984402405,1.0,2859.931625740663,0.5055750361808021,1.292919371907662,0.9805388537140133,0.2849651563344901,0.7263974539579746
0.063,1.7111279455671904,1.0,2864.3189697868993,0.5083483684997503,1.2923988939732762,0.9807192052044754,0.284920373713822,0.7273688992449132
0.0635,1.7100616926941403,1.0,2868.7069088357575,0.511106141963061,1.2918784405779975,0.980895663262126,0.28487559109315386,0.7283385711918252
0.064,1.7089954398210903,1.0,2873.0938216472555,0.5138484447967452,1.2913580260290274,0.9810683400084864,0.28483080847248576,0.7293064434581269
0.0645,1.7079291869480402,1.0,2877.4780820558562,0.5165753652268135,1.290837664633568,0.9812373435299188,0.28478602585181767,0.7302724898931513
0.065,1.70686293407499,1.0,2881.858058985298,0.5192869914792765,1.2903173706988207,0.981402778052823,0.2847412432311496,0.7312366845361082
0.0655,1.7057966812019398,1.0,2886.2343682297865,0.5219833860854072,1.2897971386278129,0.9815647413634319,0.2846964606104815,0.7321990384028452
0.066,1.7047304283288898,1.0,2890.6051418730776,0.5246646528261885,1.2892769847786172,0.9817233317135361,0.2846516779898134,0.7331595219304582
0.0665,1.7036641754558397,1.0,2894.9681516807673,0.5273308966654723,1.288756928640349,0.9818786441352488,0.2846068953691453,0.734118100006991
0.067,1.7025979225827894,1.0,2899.3231209773417,0.5299821976794367,1.2882369724323133,0.9820307678746051,0.28456211274847715,0.7350747695250444
0.0675,1.7015316697097393,1.0,2903.669772396566,0.53261863594426,1.2877171183738145,0.9821797891175106,0.28451733012780905,0.7360295274064681
0.068,1.7004654168366893,1.0,2908.0078278862147,0.5352402915361201,1.2871973686841574,0.9823257911162939,0.28447254750714096,0.7369823706023476
0.0685,1.6993991639636392,1.0,2912.3370087133258,0.5378472445311953,1.286677725582647,0.9824688543101862,0.2844277648864728,0.7379332960929865
0.069,1.698332911090589,1.0,2916.657035469593,0.5404395750056635,1.2861581912885878,0.9826090564400445,0.2843829822658047,0.7388823008878955
0.0695,1.6972666582175389,1.0,2920.9676280763256,0.543017363035703,1.2856387680212846,0.982746472657647,0.2843381996451366,0.7398293820257741
0.07,1.6962004053444888,1.0,2925.268505789925,0.5455806886974919,1.285119458000042,0.982881175629838,0.28429341702446853,0.7407745365744971
0.07050000000000001,1.6951341524714387,1.0,2929.5593872075706,0.5481296320672083,1.2846002634441651,0.9830132356378095,0.28424863440380044,0.7417177616310964
0.07100000000000001,1.6940678995983884,1.0,2933.839990272681,0.5506642732210303,1.2840811865729587,0.9831427206717706,0.28420385178313234,0.7426590543217471
0.07150000000000001,1.6930016467253384,1.0,2938.1100322807483,0.5531846922351359,1.283562229605727,0.9832696965212526,0.2841590691624642,0.7435984118017506
0.07200000000000001,1.6919353938522883,1.0,2942.369229885252,0.5556909691857034,1.2830433947617752,0.9833942268612762,0.2841142865417961,0.7445358312555163
