Time [s],Phi [rad],STIM [ ],Fsee [N],Gamma [ ],Lcerel [ ],q [ ],Lmtc [m],fisomrel [ ]
0.0,1.8,1.0,17.966583070611616,1.0000001984947897e-05,1.37933981065033,0.005000026651787533,0.288653,0.5411393751778435
0.0005,1.79999375,1.0,18.275968169970138,0.005619153218676804,1.379302473986259,0.012940515682350058,0.2886527375,0.5412296977930593
0.001,1.799975,1.0,21.617618687796995,0.011196843520744928,1.378938380030328,0.03560858210750908,0.28865195,0.5421100259566028
0.0015,1.79994375,1.0,31.068385196476054,0.01674324739112524,1.3780462762153742,0.07060171455785588,0.2886506375,0.5442634344377837
0.002,1.7999,1.0,53.581259152951695,0.02225854032110151,1.3763682049107124,0.11471784826461426,0.2886488,0.5483003008044898
0.0025,1.79984375,1.0,97.11744573270241,0.027742896817870764,1.3739352391516018,0.1645746856913456,0.28864643749999996,0.5541212912010025
0.003,1.7997750000000001,1.0,160.9565832789666,0.033196490412259146,1.3712144030298978,0.2172802380593839,0.28864354999999997,0.5605863105330249
0.0035,1.79969375,1.0,237.68174264834022,0.0386194936583139,1.3685847831753937,0.2706126716821408,0.2886401375,0.56678972452662
0.004,1.7996,1.0,321.46523187591424,0.044012078144085566,1.366156133170709,0.32291559028692096,0.2886362,0.5724798665225573
0.0045000000000000005,1.7994937500000001,1.0,409.2662875319374,0.049374414496812326,1.363922848514836,0.3730343061426396,0.2886317375,0.5776790826812745
0.005,1.799375,1.0,499.412107621707,0.05470667237401339,1.3618583720233217,0.42024727205303375,0.28862675,0.5824570108310947
0.0055,1.79924375,1.0,590.7890860903284,0.060009020510934256,1.359938861043453,0.46417352370283527,0.2886212375,0.586875052011294
0.006,1.7991000000000001,1.0,682.5168435893692,0.06528162666374666,1.3581464377369916,0.504679802072605,0.2886152,0.5909793658683138
0.006500000000000001,1.79894375,1.0,773.8799201447531,0.07052465766546014,1.3564672764529806,0.541800616180999,0.2886086375,0.5948057424049564
0.007,1.798775,1.0,864.2848693358673,0.0757382794076801,1.354890410210556,0.57567664719565,0.28860155,0.5983826426676766
0.0075,1.79859375,1.0,953.2424776878129,0.08092265685325857,1.3534067905380867,0.606509793826402,0.2885939375,0.6017335471988806
0.008,1.7984,1.0,1040.3578008153854,0.08607795402740431,1.352008655970136,0.6345319486481262,0.2885858,0.6048785271750586
0.0085,1.79819375,1.0,1125.3161081915327,0.09120433410160157,1.3506892148750251,0.6599843181721208,0.2885771375,0.6078350592166405
0.009000000000000001,1.797975,1.0,1207.8773536837537,0.09630195907532682,1.3494423469544714,0.6831042753125057,0.28856795,0.6106187696267564
0.0095,1.79774375,1.0,1287.8704735522876,0.10137099063220462,1.348262411379336,0.7041175500755767,0.2885582375,0.61324391843192
0.01,1.7975,1.0,1365.1571930082844,0.10641158898153819,1.347144511959037,0.7232342196702631,0.288548,0.6157228565584247
0.0105,1.79724375,1.0,1439.6471829075647,0.11142391331421761,1.3460841005355353,0.740646670199782,0.2885372375,0.6180669494786656
0.011,1.796975,1.0,1511.2932672162963,0.11640812215701558,1.3450769072444841,0.7565292349680884,0.28852595000000003,0.6202867604801712
0.0115,1.79669375,1.0,1580.099232188474,0.12136437432512971,1.3441187432585355,0.7710386735299904,0.2885141375,0.622392508093642
0.012,1.7964,1.0,1646.0492164686855,0.12629282576614986,1.3432062561886375,0.7843155808986293,0.28850180000000003,0.6243924289316942
0.0125,1.79609375,1.0,1709.158455063092,0.13119363203633305,1.3423362130629577,0.7964853565473223,0.2884889375,0.6262943789085245
0.013000000000000001,1.7957750000000001,1.0,1769.4740689142525,0.13606694837188194,1.341505439487903,0.8076595984630376,0.28847555,0.6281059783168823
0.0135,1.79544375,1.0,1827.0607613517395,0.14091292966507127,1.340710936895968,0.8179375600091962,0.2884616375,0.6298343669626012
0.014,1.7951000000000001,1.0,1881.9780268749084,0.14573172934782389,1.3399500857174442,0.8274075558551918,0.2884472,0.6314857755762191
0.0145,1.79474375,1.0,1934.280326985044,0.15052349901270629,1.3392205886410384,0.8361481606090264,0.2884322375,0.6330656640370772
0.015,1.794375,1.0,1984.0432020988376,0.15528839025228505,1.3385201483554579,0.844229215863165,0.28841675,0.6345794297110932
0.0155,1.79399375,1.0,2031.3471757866826,0.16002655366207658,1.337846617901635,0.8517129009681511,0.2884007375,0.6360320879222787
0.016,1.7936,1.0,2076.2920702779265,0.16473814084580876,1.3371978254844137,0.8586545820322353,0.2883842,0.637428655894716
0.0165,1.7931937500000001,1.0,2118.951838925066,0.1694233002061766,1.3365720262329588,0.8651037520060906,0.2883671375,0.6387731860887771
0.017,1.792775,1.0,2159.399023687649,0.17408217903759723,1.3359676177314268,0.8711046378954592,0.28834955,0.640069387231728
0.0175,1.7923437500000001,1.0,2197.717127985707,0.17871492463448777,1.3353829975639733,0.8766967817549456,0.2883314375,0.6413209341358543
0.018000000000000002,1.7919,1.0,2233.99574061392,0.18332168383428532,1.3348166029411968,0.8819156019451387,0.2883128,0.6425313851878731
0.0185,1.79144375,1.0,2268.3227770276294,0.1879026028757362,1.3342669778301137,0.8867928916592897,0.2882936375,0.6437040418760276
0.019,1.790975,1.0,2300.7879103089113,0.19245782800287498,1.333732727284627,0.8913572262128843,0.28827395,0.644842049550908
0.0195,1.79049375,1.0,2331.457079044042,0.19698750187086259,1.333212759256062,0.8956343871831229,0.2882537375,0.6459478860617398
0.02,1.79,1.0,2360.4018932855943,0.20149176713486,1.3327059816957443,0.8996476075139055,0.288233,0.6470240106628542
0.0205,1.78949375,1.0,2387.6991652764764,0.20597076645002826,1.332211302554999,0.9034178577443259,0.2882117375,0.6480728649703791
0.021,1.788975,1.0,2413.4249589481465,0.2104246414459044,1.33172768302514,0.906964108102255,0.28818995000000003,0.6490967612078195
0.021500000000000002,1.78844375,1.0,2437.656709213399,0.21485353426897016,1.3312541118214538,0.9103035430181995,0.2881676375,0.6500979381421549
0.022,1.7879,1.0,2460.4672094593493,0.2192575862608919,1.330789658536343,0.9134517642732791,0.2881448,0.6510784496345969
0.0225,1.78734375,1.0,2481.9135634057056,0.22363693510191063,1.330333573953269,0.9164229777088682,0.28812143749999997,0.6520399550996818
0.023,1.786775,1.0,2502.0555901342177,0.22799171847226726,1.329885108855693,0.9192301062089919,0.28809755,0.6529841038114398
0.0235,1.78619375,1.0,2520.9555975237317,0.2323220740522028,1.329443514027077,0.921884923318174,0.28807313749999996,0.653912535285367
0.024,1.7856,1.0,2538.6781681304574,0.2366281395219581,1.3290080402508824,0.9243981713477595,0.2880482,0.6548268796245975
0.0245,1.78499375,1.0,2555.2773369000056,0.24091004954413256,1.3285780568733248,0.9267796853948216,0.2880227375,0.6557285093793054
0.025,1.784375,1.0,2570.8207922533643,0.24516794393846492,1.3281528215696359,0.9290384478542641,0.28799675,0.6566190232649449
0.025500000000000002,1.78374375,1.0,2585.3568586418933,0.24940195672609328,1.327731788871828,0.9311827194255257,0.2879702375,0.6574996000091566
0.026000000000000002,1.7831000000000001,1.0,2598.9286563384258,0.2536122201088343,1.3273144741527005,0.9332200880602468,0.2879432,0.6583712851088684
0.0265,1.78244375,1.0,2611.5804534547424,0.2577988662885045,1.326900392785052,0.9351575244435296,0.2879156375,0.6592351186128149
0.027,1.781775,1.0,2623.357567939146,0.2619620274669207,1.326489060141682,0.9370014404878071,0.28788755,0.6600921352289575
0.0275,1.7810937500000001,1.0,2634.3062747811996,0.2661018358458994,1.3260799915953896,0.9387577415714676,0.2878589375,0.6609433644169345
0.028,1.7804,1.0,2644.4724239103066,0.27021842305628263,1.3256727144732798,0.9404318747882412,0.2878298,0.6617898056364973
0.0285,1.77969375,1.0,2653.893715133034,0.27431191716290454,1.3252668384020976,0.9420288795602415,0.2878001375,0.6626322826399992
0.029,1.778975,1.0,2662.6227601407545,0.27838245424801605,1.3248618416974698,0.9435533984143875,0.28776995,0.6634718871458166
0.029500000000000002,1.7782437500000001,1.0,2670.689399175071,0.2824301605898599,1.3244574180892987,0.9450097534279317,0.2877392375,0.6643092597156441
0.03,1.7775,1.0,2678.1239398115704,0.286455162466679,1.3240532613074878,0.9464019483306051,0.287708,0.6651450377422865
0.0305,1.77674375,1.0,2684.9571157751143,0.2904575861567162,1.32364906508194,0.9477336959930963,0.2876762375,0.6659798554578642
0.031,1.775975,1.0,2691.2200478346836,0.2944375579382142,1.3232445231425578,0.9490084432173935,0.28764395,0.6668143439360346
0.0315,1.7751937500000001,1.0,2696.9442067773903,0.2983952040894159,1.3228393292192444,0.950229393123068,0.2876111375,0.6676491310882281
0.032,1.7744,1.0,2702.161378462627,0.30233065088856403,1.3224331770419027,0.9513995253886361,0.2875778,0.6684848416539064
0.0325,1.77359375,1.0,2706.890103686509,0.3062440184165127,1.3220258838104995,0.9525216275097597,0.2875439375,0.6693218436099067
0.033,1.772775,1.0,2711.16898983289,0.3101354375944049,1.321617085614483,0.9535982793633726,0.28750955,0.6701608744924945
0.0335,1.7719437500000002,1.0,2715.029143659816,0.3140050342118362,1.32120648915354,0.9546318945144856,0.2874746375,0.6710025233598751
0.034,1.7711000000000001,1.0,2718.4894504031618,0.3178529278683471,1.320793914218593,0.955624737760665,0.2874392,0.6718471447714096
0.0345,1.7702437500000001,1.0,2721.568938112935,0.3216792381634781,1.320379180600564,0.9565789257451904,0.2874032375,0.6726950913192321
0.035,1.7693750000000001,1.0,2724.2867633626197,0.32548408469676954,1.3199621080903765,0.9574964383806255,0.28736675,0.6735467136044714
0.035500000000000004,1.76849375,1.0,2726.662197679465,0.3292675870677619,1.3195425164789525,0.9583791292649825,0.2873297375,0.6744023602114106
0.036000000000000004,1.7676,1.0,2728.7146146937203,0.3330298648759956,1.3191202255572145,0.959228735189806,0.2872922,0.675262377679568
0.0365,1.76669375,1.0,2730.4634780088786,0.3367710377210111,1.3186950551160854,0.9600468848287121,0.2872541375,0.6761271104737094
0.037,1.765775,1.0,2731.928329791226,0.34049122520234876,1.3182668249464877,0.9608351066854514,0.28721555,0.6769969009517913
0.0375,1.76484375,1.0,2733.1276987957435,0.34419054533364846,1.3178353646612837,0.9615948369944972,0.2871764375,0.677872069421648
0.038,1.7639,1.0,2734.0761353396983,0.3478691114904711,1.317400540524557,0.9623274282994618,0.28713679999999997,0.6787528599321397
0.0385,1.76294375,1.0,2734.794552989773,0.3515270501034193,1.3169621614366167,0.9630341500939844,0.28709663750000003,0.6796396307953703
0.039,1.761975,1.0,2735.294126592839,0.3551644739484196,1.3165201251062482,0.9637162028813276,0.28705595,0.6805325586821589
0.0395,1.7609937500000001,1.0,2735.5860623216495,0.35878149580139895,1.3160743292422374,0.9643747175217464,0.2870147375,0.6814318188586406
0.04,1.76,1.0,2735.681593281613,0.36237822843828393,1.3156246715533704,0.9650107600137926,0.286973,0.6823375851620761
0.0405,1.7589937500000001,1.0,2735.5919753510316,0.3659547846350013,1.3151710497484326,0.9656253358984865,0.2869307375,0.6832500299759918
0.041,1.757975,1.0,2735.328483251925,0.36951127716747784,1.3147133615362099,0.9662193943197633,0.28688795,0.684169324204652
0.0415,1.75694375,1.0,2734.90240685369,0.3730478188116403,1.3142515046254881,0.966793831771335,0.2868446375,0.6850956372468648
0.042,1.7559,1.0,2734.3250477087977,0.3765645223434153,1.3137853767250534,0.9673494955571907,0.28680079999999997,0.686029136969121
0.0425,1.75484375,1.0,2733.607715820171,0.38006150053872967,1.3133148755436908,0.9678871869903418,0.2867564375,0.6869699896780663
0.043000000000000003,1.753775,1.0,2732.752710845482,0.383538848137174,1.3128399806914997,0.968407668148913,0.28671155,0.6879181966866778
0.043500000000000004,1.75269375,1.0,2731.778953123627,0.3869966958902483,1.3123605208486018,0.9689116541848333,0.28666613750000003,0.6888740593596627
0.044,1.7516,1.0,2730.6970120928963,0.39043515889706387,1.3118764005413743,0.9693998261802311,0.2866202,0.6898377257186106
0.0445,1.75049375,1.0,2729.5124017339454,0.39385434201560243,1.3113875702352025,0.9698728318163149,0.2865737375,0.6908092509662527
0.045,1.7493750000000001,1.0,2728.2306373253605,0.3972543501038459,1.3108939803954707,0.970331285438795,0.28652675,0.6917886892661375
0.0455,1.74824375,1.0,2726.8572344439067,0.40063528801977616,1.3103955814875634,0.9707757700945431,0.2864792375,0.6927760937276702
0.046,1.7471,1.0,2725.3977080189543,0.403997260621375,1.3098923239768656,0.9712068394248079,0.2864312,0.6937715163909992
0.0465,1.7459437500000001,1.0,2723.85757144166,0.40734037276662427,1.309384158328762,0.9716250194263606,0.28638263750000004,0.6947750082117461
0.047,1.744775,1.0,2722.242335727967,0.4106647293135059,1.3088710350086372,0.9720308100909686,0.28633355,0.6957866190455778
0.0475,1.74359375,1.0,2720.55750873695,0.41397043512000165,1.3083529044818758,0.9724246869326657,0.28628393750000003,0.696806397632625
0.048,1.7424,1.0,2718.808594442293,0.41725759504409343,1.3078297172138624,0.9728071024114879,0.2862338,0.6978343915817394
0.0485,1.74119375,1.0,2717.0010922594033,0.42052631394376316,1.3073014236699818,0.9731784872615872,0.2861831375,0.6988706473545994
0.049,1.739975,1.0,2715.140496425924,0.4237766966769926,1.3067679743156186,0.9735392517309758,0.28613195,0.6999152102496555
0.0495,1.73874375,1.0,2713.232295437552,0.4270088481017636,1.3062293196161574,0.9738897867395342,0.2860802375,0.7009681243859226
0.05,1.7375,1.0,2711.281782195091,0.4302228712793048,1.305685411763806,0.9742304648683451,0.286028,0.7020294293201289
0.0505,1.73624375,1.0,2709.291945780925,0.43341884798754926,1.3051362239108888,0.9745616404397536,0.2859752375,0.7030991226320279
0.051000000000000004,1.734975,1.0,2707.2696585634194,0.43659691180034227,1.304581693736553,0.9748836550866169,0.28592195,0.704177269899785
0.051500000000000004,1.73369375,1.0,2705.217194881751,0.4397571590857464,1.3040218008147266,0.9751968334613652,0.2858681375,0.7052638540477383
0.052000000000000005,1.7324,1.0,2703.136826237845,0.44289968621182413,1.3034565247193366,0.9755014856351177,0.2858138,0.7063588571596386
0.0525,1.73109375,1.0,2701.0308211734023,0.44602458954663793,1.302885845024311,0.9757979078768503,0.28575893750000003,0.7074622604716487
0.053,1.729775,1.0,2698.901445155773,0.4491319654582503,1.3023097413035774,0.9760863833844081,0.28570355000000003,0.7085740443653193
0.0535,1.72844375,1.0,2696.7509604732218,0.4522219103147238,1.301728193131063,0.9763671829707244,0.2856476375,0.7096941883605358
0.054,1.7271,1.0,2694.581626139303,0.45529452048412095,1.3011411800806958,0.976640565708351,0.2855912,0.7108226711084373
0.0545,1.7257437500000001,1.0,2692.3956978066917,0.4583498923345042,1.3005486817264034,0.9769067795351616,0.2855342375,0.7119594703843147
0.055,1.724375,1.0,2690.195427690192,0.4613881222339361,1.299950677642113,0.9771660618238801,0.28547675,0.7131045630804758
0.0555,1.72299375,1.0,2687.9830644987073,0.4644093065504791,1.2993471474017528,0.9774186399178684,0.2854187375,0.7142579251990857
0.056,1.7216,1.0,2685.7608533771763,0.4674135416521957,1.29873807057925,0.9776647316354452,0.2853602,0.7154195318449843
0.0565,1.72019375,1.0,2683.5310358567503,0.47040092390714844,1.2981234267485322,0.9779045457448199,0.28530113749999997,0.7165893572184712
0.057,1.718775,1.0,2681.295849815456,0.47337154968339984,1.297503195483527,0.9781382824115851,0.28524155,0.7177673746080686
0.0575,1.71734375,1.0,2679.0575294466494,0.47632551534901235,1.2968773563581621,0.9783661336205584,0.2851814375,0.7189535563832552
0.058,1.7159,1.0,2676.8145276537307,0.47926286948224084,1.296245923619431,0.9785882813648203,0.2851208,0.7201478084785403
0.0585,1.71444375,1.0,2674.572073838681,0.48218375842059646,1.2956088493132114,0.9788049053282634,0.2850596375,0.721350153723594
0.059000000000000004,1.7129750000000001,1.0,2672.3318725552604,0.48508828402250415,1.2949661177854215,0.9790161759547634,0.28499795,0.7225605528016482
0.059500000000000004,1.71149375,1.0,2670.094495015363,0.4879765332254298,1.294317723771353,0.9792222562624968,0.2849357375,0.7237789460269437
0.06,1.71,1.0,2667.8605114724605,0.4908485929668391,1.2936636620062982,0.9794233028881694,0.284873,0.7250052730135543
0.0605,1.7084937500000001,1.0,2665.6304912242927,0.49370455018419795,1.2930039272255494,0.979619466384322,0.2848097375,0.7262394726734853
0.061,1.7069750000000001,1.0,2663.4050026156788,0.4965444918149721,1.2923385141643984,0.9798108915005698,0.28474595,0.72748148321477
0.0615,1.7054437500000001,1.0,2661.1846130418826,0.4993685047966274,1.2916674175581375,0.9799977174497543,0.2846816375,0.7287312421395633
0.062,1.7039,1.0,2658.9698889532715,0.5021766760666296,1.2909906321420586,0.980180078159931,0.2846168,0.7299886862422358
0.0625,1.70234375,1.0,2656.7613958596185,0.5049690925624447,1.290308152651454,0.9803581025130418,0.2845514375,0.7312537516074622
0.063,1.7007750000000001,1.0,2654.5596983356986,0.5077458412215382,1.2896199738216156,0.980531914571072,0.28448555,0.7325263736083121
0.0635,1.69919375,1.0,2652.3653600275634,0.5105070089813761,1.2889260903878357,0.9807016337904376,0.28441913750000003,0.7338064869043375
0.064,1.6976,1.0,2650.1789436583986,0.5132526827794242,1.288226497085406,0.9808673752252942,0.2843522,0.735094025439657
0.0645,1.69599375,1.0,2648.001011036802,0.5159829495531482,1.2875211886496192,0.9810292497204198,0.2842847375,0.7363889224410398
0.065,1.694375,1.0,2645.8321230639012,0.518697896240014,1.2868101598157669,0.9811873640942756,0.28421675,0.7376911104159894
0.0655,1.69274375,1.0,2643.6728397420234,0.5213976097774873,1.2860934053191413,0.9813418213128138,0.2841482375,0.7390005211508213
0.066,1.6911,1.0,2641.5237201838468,0.524082177103034,1.2853709198950345,0.9814927206545604,0.2840792,0.7403170857087431
0.0665,1.6894437500000001,1.0,2639.3853226222363,0.52675168515412,1.2846426982787387,0.9816401578674758,0.2840096375,0.7416407344279303
0.067,1.687775,1.0,2637.258204420078,0.5294062208682109,1.2839087352055458,0.9817842253180493,0.28393955,0.7429713969196022
0.0675,1.68609375,1.0,2635.142922081821,0.5320458711827726,1.2831690254107482,0.9819250121330708,0.2838689375,0.744309002066094
0.068,1.6844000000000001,1.0,2633.0361366963143,0.5346706954423472,1.2824235996724054,0.982062604245761,0.2837978,0.7456534130997479
0.0685,1.68269375,1.0,2630.9371622719523,0.5372807774578797,1.2816724642566755,0.982197085076654,0.2837261375,0.7470045372435328
0.069,1.680975,1.0,2628.852000234354,0.5398762417548196,1.2809155635011615,0.9823285348741595,0.28365395,0.7483623921646202
0.0695,1.67924375,1.0,2626.7804359499137,0.5424571655508341,1.2801528992515674,0.98245703079446,0.28358123749999997,0.7497268910744297
0.07,1.6775,1.0,2624.7222551932664,0.5450236260635899,1.2793844733535975,0.9825826473872903,0.283508,0.7510979465846077
0.07050000000000001,1.67574375,1.0,2622.6772441426124,0.547575700510754,1.278610287652956,0.982705456700191,0.2834342375,0.7524754707077078
0.07100000000000001,1.673975,1.0,2620.6451893747308,0.5501134661099932,1.2778303439953465,0.9828255283779026,0.28335995,0.7538593748578681
0.07150000000000001,1.67219375,1.0,2618.6258778604874,0.5526370000789748,1.2770446442264738,0.9829429297571621,0.2832851375,0.7552495698514878
0.07200000000000001,1.6704,1.0,2616.619096960288,0.5551463796353653,1.2762531901920415,0.9830577259571393,0.2832098,0.7566459659079073
0.0725,1.66859375,1.0,2614.624634419446,0.5576416819968316,1.275455983737754,0.9831699799657431,0.2831339375,0.7580484726500837
0.073,1.6667750000000001,1.0,2612.6422783638227,0.560122984381041,1.2746530267093152,0.9832797527220112,0.28305755,0.7594569991052684
0.0735,1.66494375,1.0,2610.6718172955702,0.5625903640056603,1.2738443209524295,0.9833871031947844,0.2829806375,0.7608714537056849
0.074,1.6631,1.0,2608.7130400886304,0.5650438980883563,1.2730298683128007,0.9834920884578576,0.2829032,0.762291744289205
0.0745,1.6612437500000001,1.0,2606.7657359846316,0.5674836638467959,1.2722096706361332,0.9835947637617841,0.2828252375,0.7637177781000251
0.075,1.659375,1.0,2604.8296945889892,0.5699097384986462,1.271383729768131,0.9836951826025055,0.28274675,0.7651494617893433
0.0755,1.65749375,1.0,2602.9047058665983,0.572322199261574,1.270552047554498,0.9837933967869646,0.2826677375,0.7665867014160352
