Time [s],Phi [rad],STIM [ ],Fsee [N],Gamma [ ],Lcerel [ ],q [ ],Lmtc [m],fisomrel [ ]
0.0,1.8,1.0,18.137458389541987,0.00042233624823379327,1.3793207118969628,0.005046150163885146,0.288653,0.5411855788456037
0.0005,1.79999375,1.0,18.577855676094593,0.006029176584718519,1.3792690767998552,0.01412479948660552,0.2886527375,0.5413104827276325
0.001,1.799975,1.0,22.22558959139367,0.01160456697993024,1.3788767142193379,0.037789582916603996,0.28865195,0.5422590415253769
0.0015,1.79994375,1.0,32.345824190077686,0.017148683844113548,1.377938537625696,0.0735660149797968,0.2886506375,0.5445231561777752
0.002,1.7999,1.0,56.189012421445156,0.022661702595884244,1.3762010353699954,0.11821488372725639,0.2886488,0.5487014699826004
0.0025,1.79984375,1.0,101.37829119168299,0.02814379767164322,1.3737321215382494,0.16837052093784008,0.28864643749999996,0.5546055527121148
0.003,1.7997750000000001,1.0,166.42542032374487,0.03359514252862652,1.3710114081387996,0.22119056754895966,0.28864354999999997,0.5610667571137278
0.0035,1.79969375,1.0,243.81430750508892,0.039015909652055,1.3683970863322952,0.27449806057175574,0.2886401375,0.5672308251973069
0.004,1.7996,1.0,327.96487973841863,0.04440627055755865,1.3659848433987625,0.32667491971186213,0.2886362,0.5728797653137223
0.0045000000000000005,1.7994937500000001,1.0,415.9807701364566,0.04976639579948728,1.3637658749466108,0.37660095063824717,0.2886317375,0.5780433297969602
0.005,1.799375,1.0,506.24968599952376,0.05509645496623572,1.3617135678003325,0.42358284114636086,0.28862675,0.5827911188429664
0.0055,1.79924375,1.0,597.6838913087546,0.06039661674960279,1.3598045438684858,0.46726080870522196,0.2886212375,0.5871833233787974
0.006,1.7991000000000001,1.0,689.4075961307907,0.06566704878307078,1.3580214966433888,0.5075165020114559,0.2886152,0.5912646936901402
0.006500000000000001,1.79894375,1.0,780.7251288311323,0.07090791786814857,1.3563506814106931,0.5443939718219908,0.2886086375,0.5950707648537458
0.007,1.798775,1.0,871.0473155470953,0.07611938984214982,1.3547813878168486,0.5780397795613436,0.28860155,0.5986293586057105
0.0075,1.79859375,1.0,959.8792285863381,0.08130162943498594,1.3533048874730536,0.6086590630952672,0.2885939375,0.601963190330526
0.008,1.7984,1.0,1046.859352704967,0.08645480103750895,1.3519130827721937,0.6364847376535175,0.2885858,0.6050930554010561
0.0085,1.79819375,1.0,1131.66176459033,0.09157906728775247,1.3505995100699504,0.6617582664459131,0.2885771375,0.6080356617943583
0.009000000000000001,1.797975,1.0,1214.0464630920033,0.09667459026383997,1.3493581599684574,0.6847164225282282,0.28856795,0.610806364998258
0.0095,1.79774375,1.0,1293.852832483251,0.10174153166783438,1.3481833398231495,0.7055838349389338,0.2885582375,0.6134195212678482
0.01,1.7975,1.0,1370.9460658152548,0.10678005154398275,1.3470701877348594,0.7245693306087427,0.288548,0.6158873877094688
0.0105,1.79724375,1.0,1445.2379492244022,0.11179030909610656,1.346014195307457,0.74186398240143,0.2885372375,0.6182212265488938
0.011,1.796975,1.0,1516.687645933032,0.11677246285211747,1.3450110706414173,0.7576407961635075,0.28852595000000003,0.6204316362718844
0.0115,1.79669375,1.0,1585.2926181339292,0.12172667135045422,1.344056750725749,0.772055339279186,0.2885141375,0.6225285468113514
0.012,1.7964,1.0,1651.0383008751437,0.126653090453687,1.3431479038704508,0.7852470505850825,0.28850180000000003,0.6245201405271552
0.0125,1.79609375,1.0,1713.9480389039409,0.13155187587704506,1.3422812349211821,0.797340240824206,0.2884889375,0.6264144012143831
0.013000000000000001,1.7957750000000001,1.0,1774.0650145425047,0.13642318257842145,1.341453644706706,0.8084455830152092,0.28847555,0.6282187771572276
0.0135,1.79544375,1.0,1831.4644844230238,0.14126716601766592,1.3406620413356911,0.8186614384060398,0.2884616375,0.629940604569515
0.014,1.7951000000000001,1.0,1886.1966497844467,0.1460839787760354,1.3399039318989925,0.8280754086898479,0.2884472,0.6315858325242509
0.0145,1.79474375,1.0,1938.3176550251292,0.15087377252690826,1.3391770178679778,0.8367653909302009,0.2884322375,0.6331599188462547
0.015,1.794375,1.0,1987.904597594943,0.15563669894366292,1.3384790007140157,0.8448006280496725,0.28841675,0.6346682591697748
0.0155,1.79399375,1.0,2035.0381208436263,0.1603729087606817,1.3378077460044093,0.8522427756913629,0.2884007375,0.6361158378170296
0.016,1.7936,1.0,2079.8189210609626,0.16508255322102197,1.3371610849108404,0.8591467343641962,0.2883842,0.6375076620591361
0.0165,1.7931937500000001,1.0,2122.320194516987,0.16976578053377953,1.3365372908350115,0.86556159121717,0.2883671375,0.6388477419560934
0.017,1.792775,1.0,2162.6158827529034,0.1744227381327963,1.3359347559343087,0.8715312087464449,0.28834955,0.6401397951382541
0.0175,1.7923437500000001,1.0,2200.790834585697,0.1790535734519142,1.3353518723661184,0.8770948075025067,0.2883314375,0.6413875054226359
0.018000000000000002,1.7919,1.0,2236.930382037068,0.18365843290878162,1.3347871276098533,0.8822875365355701,0.2883128,0.6425943213863003
0.0185,1.79144375,1.0,2271.1288796047756,0.18823746383999881,1.3342390070717414,0.8871409237356326,0.2882936375,0.6437636675755627
0.019,1.790975,1.0,2303.461726832777,0.1927908106477645,1.3337062633408154,0.8916833591211825,0.28827395,0.644898373109408
0.0195,1.79049375,1.0,2333.999270274808,0.19731861635208736,1.3331877636573881,0.8959404153456716,0.2882537375,0.646001001750601
0.02,1.79,1.0,2362.8176158811634,0.20182102397297624,1.3326823752617714,0.8999351401651821,0.288233,0.647074098182991
0.0205,1.78949375,1.0,2389.998143705623,0.20629817653043983,1.3321889653942776,0.9036883397528913,0.2882117375,0.6481201889996157
0.021,1.788975,1.0,2415.6087745910245,0.21075021453231527,1.3317065778850146,0.9072188642965874,0.28818995000000003,0.6491414100376682
0.021500000000000002,1.78844375,1.0,2439.742753972173,0.2151772824956691,1.331234051779116,0.9105437439432936,0.2881676375,0.6501403155037946
0.022,1.7879,1.0,2462.4568736572073,0.21957951872058346,1.3307706139913626,0.913678502866918,0.2881448,0.6511186253819419
0.0225,1.78734375,1.0,2483.8097313860485,0.22395706132601073,1.3303155027140658,0.9166372453860177,0.28812143749999997,0.6520780250853124
0.023,1.786775,1.0,2503.8626493908437,0.22831004843090302,1.3298679561395357,0.9194328035028745,0.28809755,0.6530201897714457
0.0235,1.78619375,1.0,2522.6794448422293,0.23263861815421263,1.3294272124600826,0.9220768692837579,0.28807313749999996,0.6539467847282514
0.024,1.7856,1.0,2540.31947466666,0.23694290718751498,1.3289925733581016,0.9245801226900668,0.2880482,0.6548593325102492
0.0245,1.78499375,1.0,2556.845534523163,0.24122305323265278,1.3285633268806643,0.9269523213240787,0.2880227375,0.6557593757305797
0.025,1.784375,1.0,2572.318664601034,0.2454791932374578,1.3281387946265903,0.9292023998464132,0.28799675,0.6566483783833175
0.025500000000000002,1.78374375,1.0,2586.7829425785762,0.24971146001354666,1.327718471689663,0.9313385727433094,0.2879702375,0.6575274340350494
0.026000000000000002,1.7831000000000001,1.0,2600.2837202797587,0.25391998637253616,1.3273018531636656,0.9333683770891927,0.2879432,0.6583976304707599
0.0265,1.78244375,1.0,2612.8675161839665,0.25810490512604284,1.326888434142381,0.9352987375507389,0.2879156375,0.6592600498212444
0.027,1.781775,1.0,2624.581913588162,0.2622663490856835,1.326477709719593,0.9371360243607868,0.28788755,0.660115768674264
0.0275,1.7810937500000001,1.0,2635.473354768015,0.26640445025231985,1.3260691945041045,0.9388861077009969,0.2878589375,0.6609658175875142
0.028,1.7804,1.0,2645.5824162962335,0.2705193387406871,1.3256624652184583,0.9405544095485666,0.2878298,0.661811092945907
0.0285,1.77969375,1.0,2654.960444048257,0.27461114942756826,1.325257006081112,0.9421459246062235,0.2878001375,0.6626526785559679
0.029,1.778975,1.0,2663.6396385960434,0.2786800095061313,1.3248524841908123,0.9436652927541432,0.28776995,0.6634912739638332
0.029500000000000002,1.7782437500000001,1.0,2671.652734637334,0.2827260461695444,1.3244485666463057,0.9451168077329488,0.2877392375,0.6643275752587938
0.03,1.7775,1.0,2679.032953639966,0.28674938661097554,1.324044920546339,0.9465044473947718,0.287708,0.6651622750896584
0.0305,1.77674375,1.0,2685.8139589433285,0.2907501580235929,1.3236412129896584,0.9478319009512519,0.2876762375,0.6659960626740515
0.031,1.775975,1.0,2692.0298133170127,0.2947284876005645,1.3232371110750107,0.9491025935492202,0.28764395,0.6668296238006415
0.0315,1.7751937500000001,1.0,2697.7126365924396,0.29868450101658495,1.3228323029518732,0.9503197106120216,0.2876111375,0.6676635974833864
0.032,1.7744,1.0,2702.8879994219237,0.30261832053521176,1.3224265394512595,0.9514862222058122,0.2875778,0.6684984906169815
0.0325,1.77359375,1.0,2707.59698337144,0.3065300805752338,1.3220194321840115,0.952604881052819,0.2875439375,0.6693350934180065
0.033,1.772775,1.0,2711.8599938539955,0.31041990189040175,1.3216107838526054,0.9536782714791511,0.28750955,0.6701738000947473
0.0335,1.7719437500000002,1.0,2715.697620042459,0.3142879052344664,1.321200397159517,0.9547088045525184,0.2874746375,0.6710150027569151
0.034,1.7711000000000001,1.0,2719.13061734806,0.31813421136117853,1.3207880748072225,0.9556987317598841,0.2874392,0.6718590913950122
0.0345,1.7702437500000001,1.0,2722.1798907621064,0.3219589410242889,1.320373619498198,0.9566501574515816,0.2874032375,0.6727064538572187
0.035,1.7693750000000001,1.0,2724.866479060729,0.3257622149775483,1.3199568339349197,0.9575650501761117,0.28736675,0.6735574758237954
0.035500000000000004,1.76849375,1.0,2727.211539872743,0.3295441539747075,1.3195375208198632,0.9584452530160986,0.2873297375,0.6744125407790036
0.036000000000000004,1.7676,1.0,2729.2363356102373,0.33330487876951725,1.3191154828555052,0.9592924930238155,0.2872922,0.6752720299805415
0.0365,1.76669375,1.0,2730.962222897936,0.3370445100006746,1.3186905227203765,0.9601083898155579,0.2872541375,0.6761363224751697
0.037,1.765775,1.0,2732.4092211735688,0.3407631656515619,1.3182624559609097,0.9608944641897189,0.28721555,0.6770057688958226
0.0375,1.76484375,1.0,2733.5923616875607,0.3444609635624792,1.3178311440345094,0.9616521490831514,0.2871764375,0.6778806246228155
0.038,1.7639,1.0,2734.525697300111,0.34813801966690106,1.3173964577652186,0.9623827919216545,0.28713679999999997,0.67876112435616
0.0385,1.76294375,1.0,2735.2233262190775,0.3517944498983022,1.3169582679770813,0.9630876602013214,0.28709663750000003,0.6796475011510483
0.039,1.761975,1.0,2735.6993856809454,0.35543037019015733,1.316516445494141,0.9637679470962595,0.28705595,0.6805399863895234
0.0395,1.7609937500000001,1.0,2735.957531926175,0.3590458958687626,1.3160709565964814,0.964424785188396,0.2870147375,0.6814386173347742
0.04,1.760000122661385,1.0,2736.0413112850533,0.3626411418511684,1.3156214610516952,0.9650592145576818,0.28697300515177815,0.6823440475879887
0.0405,1.7590018738137563,1.0,2736.317392458238,0.36621622128742265,1.3151681325827758,0.9656722614498654,0.28693107870017776,0.6832558935085646
0.041,1.7580036249661275,1.0,2736.986263510167,0.36977124704819037,1.3147112386869362,0.966264902431172,0.28688915224857736,0.6841735849621629
0.0415,1.7570053761184987,1.0,2738.0191221634673,0.37330633174865563,1.3142510420645188,0.9668380592047301,0.28684722579697697,0.6850965642900639
0.042,1.75600712727087,1.0,2739.3833015686073,0.3768215877899161,1.3137878409763581,0.9673926056384933,0.2868052993453765,0.6860242055337875
0.0425,1.7550088784232412,1.0,2741.0503505968713,0.38031712621473857,1.3133218957302137,0.9679293646098237,0.2867633728937761,0.6869559619133452
0.043000000000000003,1.7540106295756124,1.0,2742.9955338768846,0.38379305715154566,1.3128534331098725,0.9684491117922008,0.28672144644217573,0.6878913564775719
0.043500000000000004,1.7530123807279836,1.0,2745.1941253545097,0.38724949072875986,1.312382679899121,0.9689525815448096,0.2866795199905753,0.6888299148566432
0.044,1.7520141318803548,1.0,2747.6234534763325,0.39068653637327594,1.311909844243703,0.969440467956555,0.2866375935389749,0.6897712023720313
0.0445,1.751015883032726,1.0,2750.2618453036894,0.39410430340958225,1.3114351251581529,0.969913428221318,0.2865956670873745,0.6907148049034619
0.045,1.7500176341850973,1.0,2753.0921027577438,0.3975028993017535,1.3109586810045062,0.9703720822709001,0.2865537406357741,0.6916603912880669
0.0455,1.7490193853374685,1.0,2756.097040026442,0.4008824315025935,1.3104806698988396,0.970817018418638,0.2865118141841737,0.692607632714183
0.046,1.7480211364898397,1.0,2759.2667770682383,0.40424300204559144,1.3100011837230565,0.9712487896280676,0.28646988773257326,0.6935563331961216
0.0465,1.747022887642211,1.0,2762.5760802496943,0.4075847249216229,1.3095204530045657,0.9716679330900296,0.28642796128097286,0.694506024144925
0.047,1.7460246387945821,1.0,2766.009239996499,0.41090770791353315,1.309038621827282,0.9720749523121066,0.2863860348293724,0.6954564101374177
0.0475,1.7450263899469534,1.0,2769.557488181731,0.4142120537063222,1.3085557713597893,0.9724703210257554,0.286344108377772,0.6964073213028235
0.048,1.7440281410993246,1.0,2773.21204091471,0.41749786498499003,1.3080719827706706,0.9728544900669749,0.28630218192617163,0.6973585887491953
0.0485,1.7430298922516958,1.0,2776.9640967796895,0.4207652444345368,1.3075873372285098,0.9732278886973765,0.28626025547457123,0.6983100445684789
0.049,1.742031643404067,1.0,2780.8048352208184,0.4240142947399624,1.30710191590189,0.9735909258373324,0.28621832902297084,0.6992615218411624
0.0495,1.7410333945564382,1.0,2784.7254150727154,0.4272451185862669,1.3066157999593948,0.9739439912178094,0.2861764025713704,0.7002128546404986
0.05,1.7400351457088095,1.0,2788.716973237679,0.4304578186584504,1.3061290705696076,0.9742874564569363,0.28613447611977,0.7011638780363145
0.0505,1.7390368968611805,1.0,2792.7706235083083,0.4336524976415129,1.305641808901112,0.9746216760668603,0.28609254966816955,0.7021144280983935
0.051000000000000004,1.7380386480135517,1.0,2796.878016305884,0.43682925721561683,1.3051540910870842,0.974946987955385,0.28605062321656916,0.703064351699029
0.051500000000000004,1.737040399165923,1.0,2801.0383799097544,0.4399881879339287,1.304665925056457,0.9752637091594953,0.28600869676496876,0.7040136291756803
0.052000000000000005,1.7360421503182941,1.0,2805.236518968965,0.443129408557939,1.3041774480500066,0.9755721538482017,0.28596677031336837,0.7049619901077346
0.0525,1.7350439014706653,1.0,2809.4693222209908,0.44625301516641225,1.303688688640348,0.9758726129710554,0.285924843861768,0.7059093762496995
0.053,1.7340456526230366,1.0,2813.7336693580687,0.44935910383811306,1.303199675400096,0.9761653647283945,0.2858829174101675,0.7068557297107028
0.0535,1.7330474037754078,1.0,2818.026430857478,0.4524477706518059,1.3027104369018658,0.9764506752402126,0.28584099095856713,0.7078009929549793
0.054,1.732049154927779,1.0,2822.344467829521,0.45551911168625536,1.3022210017182718,0.976728799174437,0.2857990645069667,0.7087451088023098
0.0545,1.7310509060801502,1.0,2826.684631884211,0.4585732230202259,1.3017313984219288,0.9769999803374088,0.2857571380553663,0.7096880204284033
0.055,1.7300526572325214,1.0,2831.0437650152166,0.46161020073248205,1.301241655585452,0.9772644522291337,0.2857152116037659,0.7106296713652294
0.0555,1.7290544083848927,1.0,2835.418699502953,0.46463014090178834,1.3007518017814559,0.9775224385656885,0.2856732851521655,0.7115700055013006
0.056,1.7280561595372639,1.0,2839.806257834829,0.4676331396069093,1.3002618655825555,0.9777741537709749,0.2856313587005651,0.7125089670818985
0.0565,1.727057910689635,1.0,2844.2032526442335,0.4706192929266094,1.2997718755613656,0.9780198034398647,0.28558943224896466,0.713446500709251
0.057,1.7260596618420063,1.0,2848.606486667492,0.4735886969396533,1.2992818602905012,0.9782595847746167,0.28554750579736426,0.714382551342656
0.0575,1.7250614129943775,1.0,2853.0149999423625,0.47654143549588535,1.2987918283632067,0.9784936847923285,0.28550557934576387,0.7153171023704465
0.058,1.7240631641467488,1.0,2857.4269560036223,0.47947760426588265,1.2983017961328998,0.9787222844897863,0.2854636528941634,0.7162501225251464
0.0585,1.72306491529912,1.0,2861.8373586203993,0.4823973167989803,1.2978118079516703,0.978945560733091,0.28542172644256303,0.7171815275655531
0.059000000000000004,1.7220666664514912,1.0,2866.245458410484,0.48530066151889695,1.2973218703648586,0.979163679196036,0.28537979999096263,0.7181113054934383
0.059500000000000004,1.7210684176038624,1.0,2870.650503736807,0.4881877268493515,1.296831989917804,0.9793767990855101,0.28533787353936224,0.7190394443923365
0.06,1.7200701687562336,1.0,2875.0517407151247,0.4910586012140627,1.2963421731558469,0.9795850734446734,0.2852959470877618,0.7199659324275194
0.0605,1.7190719199086049,1.0,2879.4484132230527,0.49391337303674937,1.2958524266243268,0.9797886494396547,0.2852540206361614,0.7208907578459738
0.061,1.718073671060976,1.0,2883.839762909378,0.4967521307411303,1.2953627568685835,0.9799876686307829,0.285212094184561,0.7218139089763713
0.0615,1.7170754222133473,1.0,2888.2250292048984,0.4995749627509243,1.294873170433957,0.9801822672293019,0.28517016773296056,0.7227353742290386
0.062,1.7160771733657185,1.0,2892.6034493343373,0.50238195748985,1.2943836738657877,0.9803725763404463,0.28512824128136016,0.7236551420959234
0.0625,1.7150789245180897,1.0,2896.9742583283414,0.5051732033816265,1.2938942737094148,0.9805587221937065,0.28508631482975977,0.7245732011505599
0.063,1.714080675670461,1.0,2901.3366890375005,0.5079487888499723,1.2934049765101783,0.9807408263610409,0.2850443883781594,0.7254895400480286
0.0635,1.7130824268228322,1.0,2905.689972146544,0.5107088023186064,1.2929157888134182,0.980919005963761,0.285002461926559,0.7264041475249139
0.064,1.7120841779752034,1.0,2910.0333361896555,0.5134533322112476,1.2924267171644745,0.9810933738687471,0.28496053547495853,0.7273170123992616
0.0645,1.7110859291275746,1.0,2914.366007567415,0.5161824669516144,1.2919377681086868,0.9812640388746287,0.28491860902335814,0.7282281235705315
0.065,1.7100876802799456,1.0,2918.687210563268,0.5188962949634258,1.291448948191395,0.9814311058885037,0.2848766825717577,0.7291374700195457
0.0655,1.7090894314323168,1.0,2922.9965916024935,0.521594893610083,1.29096026023158,0.981594675149052,0.2848347561201573,0.7300450477231227
0.066,1.708091182584688,1.0,2927.2948227761012,0.5242783277263785,1.290471698038477,0.9817548420900754,0.2847928296685569,0.7309508693834308
0.0665,1.7070929337370593,1.0,2931.580100254241,0.5269467299627946,1.2899832771561162,0.9819117044322955,0.2847509032169565,0.7318549074292064
0.067,1.7060946848894305,1.0,2935.852395542881,0.5296001801071754,1.2894949975244971,0.9820653522063041,0.28470897676535606,0.7327571632917456
0.0675,1.7050964360418017,1.0,2940.1116803009395,0.5322387579473652,1.2890068590836186,0.9822158723519522,0.28466705031375567,0.7336576384012163
0.068,1.704098187194173,1.0,2944.357926339485,0.534862543271208,1.28851886177348,0.982363348846257,0.28462512386215527,0.7345563341866568
0.0685,1.7030999383465442,1.0,2948.5911056220575,0.5374716158665479,1.2880310055340805,0.982507862825158,0.2845831974105548,0.7354532520759774
0.069,1.7021016894989154,1.0,2952.811190264449,0.5400660555212291,1.2875432903054187,0.9826494926994597,0.28454127095895443,0.736348393495962
0.0695,1.7011034406512866,1.0,2957.0181525341054,0.5426459420230956,1.2870557160274942,0.9827883142652756,0.28449934450735404,0.7372417598722659
0.07,1.7001051918036578,1.0,2961.2119648503135,0.5452113551599916,1.2865682826403062,0.9829244008092721,0.28445741805575364,0.7381333526294183
0.07050000000000001,1.699106942956029,1.0,2965.392599784015,0.5477623747197613,1.2860809900838535,0.9830578232089882,0.28441549160415325,0.7390231731908232
0.07100000000000001,1.6981086941084003,1.0,2969.5600300573124,0.5502990804902486,1.2855938382981353,0.9831886500284953,0.2843735651525528,0.7399112229787581
0.07150000000000001,1.6971104452607715,1.0,2973.7142285437562,0.5528215522592977,1.285106827223151,0.9833169476096407,0.2843316387009524,0.7407975034143761
