Time [s],Phi [rad],STIM [ ],Fsee [N],Gamma [ ],Lcerel [ ],q [ ],Lmtc [m],fisomrel [ ]
0.0,1.8,1.0,18.140577824296287,0.0004236854152958212,1.3793203640754836,0.00504644426752895,0.288653,0.5411864202730949
0.0005,1.79999375,1.0,18.58120330762781,0.0060305181840198995,1.3792687079856223,0.014128799174177642,0.2886527375,0.5413113748179744
0.001,1.799975,1.0,22.22983371356207,0.011605901053920304,1.37887628672745,0.037796810631504196,0.28865195,0.5422600744758262
0.0015,1.79994375,1.0,32.35231774901727,0.017150010435003023,1.377937995450982,0.07357576542822084,0.2886506375,0.5445244629926451
0.002,1.7999,1.0,56.19997763424611,0.02266302174564802,1.3762003407335646,0.11822634105532576,0.2886488,0.548703136581473
0.0025,1.79984375,1.0,101.39464101167012,0.028145109422014352,1.3737313504388569,0.168382930573726,0.28864643749999996,0.5546073906222844
0.003,1.7997750000000001,1.0,166.445440935255,0.03359644692112045,1.3710106711823489,0.2212033371308118,0.28864354999999997,0.5610685008572163
0.0035,1.79969375,1.0,243.8363981224577,0.0390172067279154,1.3683964145078522,0.27451073622177674,0.2886401375,0.5672324036280572
0.004,1.7996,1.0,327.9879300291069,0.044407560357878136,1.3659842389736718,0.32668717734969716,0.2886362,0.5728811760933108
0.0045000000000000005,1.7994937500000001,1.0,416.00424685356415,0.04976767836484547,1.363765328331051,0.3766125764526881,0.2886317375,0.5780445979088098
0.005,1.799375,1.0,506.2738284626541,0.05509773033933109,1.3617130582566823,0.4235937051049752,0.28862675,0.5827922942812435
0.0055,1.79924375,1.0,597.7076880728711,0.06039788496658981,1.3598040816309753,0.467270866932134,0.2886212375,0.587184384061513
0.006,1.7991000000000001,1.0,689.4314700536752,0.06566830988695871,1.3580210648565776,0.5075257403945421,0.2886152,0.5912656795885276
0.006500000000000001,1.79894375,1.0,780.7486371969002,0.07090917189748648,1.3563502818732653,0.5444024184147431,0.2886086375,0.5950716728598353
0.007,1.798775,1.0,871.0705076905739,0.07612063683907593,1.354781014648756,0.5780474757625954,0.28860155,0.598630202948977
0.0075,1.79859375,1.0,959.901643513165,0.08130286943594335,1.3533045439041322,0.6086660655999184,0.2885939375,0.6019639644664958
0.008,1.7984,1.0,1046.880795577173,0.0864560340808981,1.3519127680524836,0.6364911043404642,0.2885858,0.6050937617399199
0.0085,1.79819375,1.0,1131.6827639820615,0.09158029341887504,1.3505992136320304,0.6617640495045125,0.2885771375,0.6080363246192664
0.009000000000000001,1.797975,1.0,1214.0670245824062,0.09667580952090835,1.3493578797333925,0.6847216771252805,0.28856795,0.610806989375601
0.0095,1.79774375,1.0,1293.8726582677284,0.10174274407828036,1.3481830780810058,0.7055886150624996,0.2885582375,0.6134201024809829
0.01,1.7975,1.0,1370.9651382502598,0.10678125715454685,1.3470699431205684,0.7245736840513282,0.288548,0.615887929152696
0.0105,1.79724375,1.0,1445.2563081148567,0.11179150794578402,1.3460139659764643,0.7418679523265738,0.2885372375,0.6182217326187444
0.011,1.796975,1.0,1516.705053584497,0.11677365496322394,1.3450108583764906,0.7576444231565266,0.28852595000000003,0.6204321033237155
0.0115,1.79669375,1.0,1585.309159951469,0.1217278567834115,1.3440565534313516,0.7720586580238462,0.2885141375,0.6225289797223837
0.012,1.7964,1.0,1651.0539916513412,0.12665426925311574,1.343147720490353,0.7852500924462539,0.28850180000000003,0.6245205418439878
0.0125,1.79609375,1.0,1713.9626831756384,0.1315530480641472,1.342281066942023,0.7973430347366244,0.2884889375,0.6264147678986937
0.013000000000000001,1.7957750000000001,1.0,1774.0796982682973,0.1364243481879012,1.3414534791533532,0.8084481488883043,0.28847555,0.6282191376724189
0.0135,1.79544375,1.0,1831.4783228277415,0.14126832504956854,1.3406618877773773,0.8186638026326778,0.2884616375,0.6299409381886276
0.014,1.7951000000000001,1.0,1886.210079800825,0.14608513132307005,1.3399037850504425,0.8280775893582365,0.2884472,0.6315861508558118
0.0145,1.79474375,1.0,1938.330757111766,0.15087491863891,1.3391768765443963,0.8367674055005541,0.2884322375,0.6331602245458781
0.015,1.794375,1.0,1987.917073735635,0.15563783862759273,1.338478867831087,0.8448024933836338,0.28841675,0.6346685460197242
0.0155,1.79399375,1.0,2035.0510344033853,0.16037404202664565,1.3378076100646832,0.8522445020586471,0.2884007375,0.6361161306836319
0.016,1.7936,1.0,2079.831187472634,0.16508368007897337,1.3371609571812524,0.8591483381473802,0.2883842,0.6375079367111662
0.0165,1.7931937500000001,1.0,2122.331992286227,0.1697669011103064,1.336537169221671,0.8655630831142628,0.2883671375,0.6388480029727819
0.017,1.792775,1.0,2162.6270496107627,0.17442385248178113,1.3359346419019489,0.8715325992574606,0.28834955,0.6401400394458208
0.0175,1.7923437500000001,1.0,2200.8008544180766,0.17905468155453394,1.3353517709380969,0.8770961069364849,0.2883314375,0.6413877223491142
0.018000000000000002,1.7919,1.0,2236.9396593416714,0.1836595347888446,1.3347870344599282,0.8822887516340917,0.2883128,0.6425945202727259
0.0185,1.79144375,1.0,2271.137169817341,0.18823855934673964,1.334238924461906,0.8871420620966923,0.2882936375,0.6437638436688404
0.019,1.790975,1.0,2303.4720799135116,0.1927919000575847,1.3337061609016594,0.8916844197517609,0.28827395,0.6448985911233285
0.0195,1.79049375,1.0,2334.013193204565,0.19731969979672162,1.3331876268003915,0.8959414010813576,0.2882537375,0.6460012925609792
0.02,1.79,1.0,2362.8350254519924,0.20182210143949234,1.3326822051793055,0.8999360571775356,0.288233,0.6470744590466662
0.0205,1.78949375,1.0,2390.0173262385315,0.20629924786123874,1.332188779059604,0.9036891971154463,0.2882117375,0.6481205837592141
0.021,1.788975,1.0,2415.630661672062,0.2107512799214887,1.3317063664090858,0.907219664796685,0.28818995000000003,0.6491418574096981
0.021500000000000002,1.78844375,1.0,2439.7640088015833,0.21517834152709062,1.3312338474303411,0.9105444984513129,0.2881676375,0.6501407471826961
0.022,1.7879,1.0,2462.479149696919,0.21958057180007232,1.330770400814502,0.9136792118612516,0.2881448,0.651119075079763
0.0225,1.78734375,1.0,2483.833416876305,0.22395810868390345,1.330315277025499,0.9166379116330778,0.28812143749999997,0.6520785005215815
0.023,1.786775,1.0,2503.886843744267,0.2283110901220535,1.3298677265272623,0.9194334317920295,0.28809755,0.6530206728180336
0.0235,1.78619375,1.0,2522.701938694738,0.232639654057992,1.3294269997837225,0.9220774661920444,0.28807313749999996,0.6539472315481356
0.024,1.7856,1.0,2540.3403417684376,0.23694393786509285,1.3289923767486227,0.924580690640448,0.2880482,0.6548597450296312
0.0245,1.78499375,1.0,2556.8561405065957,0.24122407727969106,1.328563227274635,0.9269528759860437,0.2880227375,0.655759584447948
0.025,1.784375,1.0,2572.3241726929705,0.2454802112345403,1.3281387430531695,0.929202934174826,0.28799675,0.6566484863121366
0.025500000000000002,1.78374375,1.0,2586.7870950157567,0.2497124723611605,1.3277184329183707,0.9313390824685496,0.2879702375,0.657527515068646
0.026000000000000002,1.7831000000000001,1.0,2600.2888164551578,0.25392099329107143,1.3273018057043835,0.9333688604354536,0.2879432,0.6583977295365115
0.0265,1.78244375,1.0,2612.8743940270865,0.25810590665579297,1.3268883702453524,0.9352991949836724,0.2879156375,0.6592601830304126
0.027,1.781775,1.0,2624.5899338757317,0.26226734508684496,1.3264776353754224,0.9371364583614268,0.28788755,0.6601159234683442
0.0275,1.7810937500000001,1.0,2635.482497714999,0.2664054412157473,1.326069109928738,0.93888651996007,0.2878589375,0.6609659934639047
0.028,1.7804,1.0,2645.5940197409172,0.2705203240037023,1.3256623580879439,0.9405547992959379,0.2878298,0.6618113154483414
0.0285,1.77969375,1.0,2654.972744049478,0.27461212863129314,1.3252568927202857,0.9421462953787217,0.2878001375,0.6626529137051804
0.029,1.778975,1.0,2663.652136618126,0.2786809828846333,1.324852369192777,0.9436656464160904,0.28776995,0.6634915122124992
0.029500000000000002,1.7782437500000001,1.0,2671.6651550656184,0.28272701392451033,1.3244484525337479,0.9451171457139806,0.2877392375,0.6643278113790063
0.03,1.7775,1.0,2679.0452454050405,0.28675034891171175,1.324044807771529,0.9465047707303917,0.287708,0.6651625081515078
0.0305,1.77674375,1.0,2685.826296855014,0.2907511150070252,1.3236410999344503,0.9478322103192865,0.2876762375,0.6659962960242958
0.031,1.775975,1.0,2692.042599138389,0.29472943937123824,1.3232369940508426,0.9491028893026108,0.28764395,0.6668298650413761
0.0315,1.7751937500000001,1.0,2697.7239913723497,0.29868544571065886,1.322832199135035,0.9503199950587636,0.2876111375,0.6676638112297104
0.032,1.7744,1.0,2702.897643801244,0.30261925784975124,1.3224264513570732,0.9514864962087931,0.2875778,0.6684986717643016
0.0325,1.77359375,1.0,2707.6054079393143,0.30653101218683676,1.3220193552988269,0.9526051451615035,0.2875439375,0.6693352513167344
0.033,1.772775,1.0,2711.867468051987,0.31042082906056523,1.321610715694416,0.9536785263059128,0.28750955,0.6701739398932576
0.0335,1.7719437500000002,1.0,2715.704191272653,0.31428882880958625,1.321200337277959,0.9547090507741733,0.2874746375,0.6710151254225936
0.034,1.7711000000000001,1.0,2719.1361102674173,0.31813513177254954,1.320788024783576,0.955698970118515,0.2874392,0.6718591937354971
0.0345,1.7702437500000001,1.0,2722.1839067462643,0.3219598582881047,1.3203735829453855,0.9566503887547952,0.2874032375,0.6727065285418883
0.035,1.7693750000000001,1.0,2724.8683958189786,0.3257631286949014,1.3199568164975075,0.9575652752968368,0.28736675,0.6735575114055494
0.035500000000000004,1.76849375,1.0,2727.210511196893,0.32954506333158945,1.3195375301740608,0.9584454728920224,0.2873297375,0.6744125217163941
0.036000000000000004,1.7676,1.0,2729.231291239486,0.33330578253681836,1.319115528709165,0.9592927086565362,0.2872922,0.6752719366603002
0.0365,1.76669375,1.0,2730.9518658469733,0.33704540664923777,1.318690616836939,0.9601086022979909,0.2872541375,0.6761361311865157
0.037,1.765775,1.0,2732.3934441976157,0.3407640560074975,1.3182625992915025,0.9608946740037692,0.28721555,0.6770054779726293
0.0375,1.76484375,1.0,2733.566679155644,0.34446183853622747,1.3178313773047614,0.9616523584485644,0.2871764375,0.677880151787495
0.038,1.7639,1.0,2734.4982447303087,0.3481388874559328,1.3173967070699197,0.9623829955775438,0.28713679999999997,0.6787606197103685
0.0385,1.76294375,1.0,2735.1996802744216,0.35179531602240116,1.316958482685261,0.9630878547643368,0.28709663750000003,0.679647067136024
0.039,1.761975,1.0,2735.6823117987046,0.3554312371595686,1.3165166005135764,0.9637681311003335,0.28705595,0.6805396734672483
0.0395,1.7609937500000001,1.0,2735.957496549954,0.3590467637913713,1.316070956917658,0.9644249504054346,0.2870147375,0.6814386166873595
0.04,1.76,1.0,2736.0366185632042,0.36264200884174547,1.3156214482602975,0.9650593739800207,0.286973,0.68234407333569
0.0405,1.7589937500000001,1.0,2735.931084452325,0.36621708523462726,1.3151679709042867,0.9656724029823917,0.2869307375,0.6832562184823809
0.041,1.757975,1.0,2735.6523194391207,0.3697721058939528,1.3147104212124172,0.9662649824648203,0.28688795,0.6841752257024967
0.0415,1.75694375,1.0,2735.2117636196704,0.37330718374365823,1.3142486955474808,0.9668380050981407,0.2868446375,0.6851012670494474
0.042,1.7559,1.0,2734.620868469963,0.37682243170767976,1.3137826902722693,0.9673923146118869,0.28680079999999997,0.686034513027733
0.0425,1.75484375,1.0,2733.8910935887793,0.38031796270995355,1.3133123017495747,0.9679287089744079,0.2867564375,0.6869751325649983
0.043000000000000003,1.753775,1.0,2733.0315736489933,0.38379388589660074,1.3128374475075866,0.9684479444556133,0.28671155,0.6879232507555422
0.043500000000000004,1.75269375,1.0,2732.0511755883053,0.3872503142317677,1.3123580475432146,0.9689507379731664,0.28666613750000003,0.6888789863998435
0.044,1.7516,1.0,2730.9578107792718,0.3906873571661735,1.3118740305560814,0.9694377689182585,0.2866202,0.689842439619593
0.0445,1.75049375,1.0,2729.758303228427,0.39410512162782435,1.3113853351389557,0.9699096817562316,0.2865737375,0.6908136896058681
0.045,1.7493750000000001,1.0,2728.459477493078,0.39750371454472655,1.3108918998846069,0.9703670877996601,0.28652675,0.6917928143690676
0.0455,1.74824375,1.0,2727.068157407211,0.4008832428448863,1.3103936633858033,0.9708105672326759,0.2864792375,0.6927798907204739
0.046,1.7471,1.0,2725.591164890633,0.40424381345630983,1.309890564235314,0.9712406709927645,0.2864312,0.6937749942535674
0.0465,1.7459437500000001,1.0,2724.035318841827,0.4075855333070034,1.3093825410259081,0.9716579225213353,0.28638263750000004,0.694778199325103
0.047,1.744775,1.0,2722.4057921273316,0.4109085092482232,1.3088695472948253,0.9720628204652287,0.28633355,0.6957895495978625
0.0475,1.74359375,1.0,2720.702683558396,0.4142128462226712,1.3083515827482783,0.9724558421183552,0.28628393750000003,0.6968089968642591
0.048,1.7424,1.0,2718.9661922217065,0.417498649464774,1.3078282819165834,0.972837415930434,0.2862338,0.6978372093503968
0.0485,1.7411937530794395,1.0,2717.172597588935,0.42076602192405066,1.307299862585116,0.9732079901783163,0.28618313762933645,0.6988737068085741
0.049,1.7399815305429245,1.0,2715.6212323600876,0.42401506655002025,1.3067665425392525,0.9735679917729687,0.2861322242828028,0.6999180114110746
0.0495,1.7387693080064097,1.0,2714.5840713237353,0.4272458862922019,1.3062285395643685,0.9739178274783857,0.2860813109362692,0.7009696478197514
0.05,1.7375570854698947,1.0,2714.036093042635,0.4304585834104063,1.305686079058551,0.974257885480521,0.2860303975897356,0.7020281284113818
0.0505,1.73634486293338,1.0,2713.928580823552,0.4336532605806515,1.3051396037547274,0.9745885504355121,0.28597948424320196,0.7030925453456887
0.051000000000000004,1.735132640396865,1.0,2714.225901451577,0.4368300185300388,1.3045894382157985,0.9749101813976468,0.28592857089666834,0.7041622261715059
0.051500000000000004,1.7339204178603502,1.0,2714.8980869427496,0.43998895707395436,1.304035856176506,0.9752231177410574,0.2858776575501347,0.705236601272382
0.052000000000000005,1.7327081953238352,1.0,2715.915236391564,0.44313017602778426,1.303479131371591,0.9755276835962035,0.2858267442036011,0.7063151046618132
0.0525,1.7314959727873205,1.0,2717.247729443514,0.4462537751255259,1.3029195354097107,0.9758241885321612,0.2857758308570675,0.7073971781478476
0.053,1.7302837502508055,1.0,2718.869517034131,0.4493598531473404,1.3023573076404524,0.9761129263673696,0.28572491751053386,0.7084823294528597
0.0535,1.7290715277142907,1.0,2720.7541201804593,0.4524485094445542,1.3017926914880165,0.9763941784137304,0.28567400416400024,0.7095700617487848
0.054,1.7278593051777758,1.0,2722.882318623948,0.4555198407938342,1.3012258643501693,0.9766682095387722,0.28562309081746656,0.7106600084390734
0.0545,1.726647082641261,1.0,2725.2348959537107,0.45857394397184714,1.300657003624677,0.976935273280759,0.28557217747093294,0.7117518053935937
0.055,1.725434860104746,1.0,2727.7926312584787,0.46161091575526,1.3000862867093057,0.9771956124330332,0.2855212641243993,0.7128450909726416
0.0555,1.7242226375682312,1.0,2730.5433495992315,0.46463084849987774,1.2995138268583792,0.9774494553833586,0.2854703507778657,0.7139396285734976
0.056,1.7230104150317163,1.0,2733.461996101629,0.4676338434590614,1.2989398542785733,0.97769702869652,0.2854194374313321,0.715034960216535
0.0565,1.7217981924952015,1.0,2736.5306492521404,0.47061999806100585,1.298364534082111,0.9779385454654635,0.28536852408479846,0.7161307551083061
0.057,1.7205859699586865,1.0,2739.7395510146875,0.4735894045926997,1.297787957065932,0.9781742053519542,0.28531761073826484,0.7172268259773552
0.0575,1.7193737474221717,1.0,2743.0789309340366,0.47654215534113153,1.2972102140269757,0.9784041999392658,0.2852666973917312,0.7183229868559928
0.058,1.7181615248856568,1.0,2746.5390036972067,0.4794783425932899,1.2966313957621813,0.9786287131262199,0.2852157840451976,0.7194190530873091
0.0585,1.716949302349142,1.0,2750.109966877473,0.4823980586361634,1.2960515930684884,0.9788479214990066,0.285164870698664,0.7205148413316651
0.059000000000000004,1.715737079812627,1.0,2753.7819988611836,0.4853013957567407,1.295470896742836,0.9790619946821999,0.2851139573521303,0.721610169572654
0.059500000000000004,1.7145248572761123,1.0,2757.5452569575195,0.48818844624201024,1.2948893975821638,0.9792710956702882,0.2850630440055967,0.72270485712254
0.06,1.7133126347395973,1.0,2761.389875690687,0.49105930237896067,1.294307186383411,0.9794753811409448,0.28501213065906306,0.7237987246271689
0.0605,1.7121004122030825,1.0,2765.307082352495,0.4939140548766446,1.2937243438556598,0.979675001083615,0.28496121731252944,0.7248916129673537
0.061,1.7108881896665675,1.0,2769.293201958908,0.4967527894400691,1.2931409045032227,0.9798700969236842,0.2849103039659958,0.7259834505964045
0.0615,1.7096759671300528,1.0,2773.3346090327004,0.4995756073924297,1.292556992481841,0.9800608106851734,0.2848593906194622,0.7270739992027425
0.062,1.7084637445935378,1.0,2777.4274257248244,0.5023825954000918,1.2919726437670394,0.9802472733308687,0.2848084772729286,0.7281631865168544
0.0625,1.707251522057023,1.0,2781.5677637564077,0.5051738401294209,1.291387894334342,0.980429610958974,0.28475756392639495,0.729250940801653
0.063,1.706039299520508,1.0,2785.7517240845827,0.5079494282467825,1.2908027801592732,0.9806079450212005,0.28470665057986133,0.7303371908534357
0.0635,1.7048270769839933,1.0,2789.9753965973077,0.5107094464185421,1.290217337217357,0.9807823925295293,0.2846557372333277,0.7314218660027643
0.064,1.7036148544474783,1.0,2794.2348598367844,0.5134539813110651,1.289631601484118,0.9809530662523034,0.2846048238867941,0.7325048961152585
0.0645,1.7024026319109635,1.0,2798.526180751472,0.5161831195907172,1.2890456089350806,0.9811200749002863,0.28455391054026047,0.7335862115923102
0.065,1.7011904093744485,1.0,2802.845414476961,0.5188969479238635,1.2884593955457686,0.9812835233032616,0.28450299719372685,0.734665743371715
0.0655,1.6999781868379338,1.0,2807.188604145576,0.52159555297687,1.2878729972917065,0.9814435125777214,0.2844520838471932,0.735743422928218
0.066,1.6987659643014188,1.0,2811.55178072434,0.5242790214161017,1.2872864501484187,0.9816001402861564,0.2844011705006596,0.73681918227398
0.0665,1.6975537417649038,1.0,2815.9340122631966,0.5269474280753867,1.2866997628024077,0.9817534984649162,0.284350257154126,0.7378930038553673
0.067,1.696341519228389,1.0,2820.331504601678,0.5296008640129949,1.2861129695084035,0.9819036782878089,0.28429934380759236,0.7389648235940159
0.0675,1.6951292966918743,1.0,2824.738770809007,0.5322394271542417,1.2855261195402197,0.9820507689609799,0.28424843046105874,0.7400345505749496
0.068,1.6939170741553593,1.0,2829.154623488439,0.5348631975833994,1.284939223631638,0.9821948536526284,0.2841975171145251,0.7411021646562481
0.0685,1.6927048516188443,1.0,2833.577871505116,0.5374722553847403,1.2843522925164397,0.9823360127200064,0.28414660376799145,0.7421676458566491
0.069,1.6914926290823296,1.0,2838.0073199768135,0.5400666806425366,1.283765336928406,0.9824743238242778,0.2840956904214578,0.7432309743555745
0.0695,1.6902804065458146,1.0,2842.4417702662695,0.5426465534410606,1.2831783676013189,0.9826098620399278,0.2840447770749242,0.7442921304931516
0.07,1.6890681840092998,1.0,2846.880019976907,0.5452119538645847,1.2825913952689596,0.9827426999590171,0.2839938637283906,0.7453510947702253
0.07050000000000001,1.6878559614727848,1.0,2851.3208629510086,0.547762961997381,1.2820044306651095,0.9828729077905549,0.28394295038185696,0.7464078478483656
0.07100000000000001,1.68664373893627,1.0,2855.763089270009,0.5502996579237217,1.28141748452355,0.9830005534552536,0.28389203703532334,0.7474623705498645
0.07150000000000001,1.685431516399755,1.0,2860.205485257713,0.5528221217278793,1.2808305675780627,0.9831257026759068,0.2838411236887897,0.748514643857727
0.07200000000000001,1.6842192938632403,1.0,2864.6468334859346,0.5553304334941259,1.280243690562429,0.983248419063623,0.2837902103422561,0.7495646489156553
0.0725,1.6830070713267253,1.0,2869.0859127828535,0.5578246733067339,1.2796568642104305,0.9833687642001278,0.2837392969957225,0.7506123670280257
