Time [s],Phi [rad],STIM [ ],Fsee [N],Gamma [ ],Lcerel [ ],q [ ],Lmtc [m],fisomrel [ ]
0.0,1.8,1.0,17.97688520247448,0.00010090312935190819,1.379338656613965,0.005002664470963946,0.288653,0.5411421670864554
0.0005,1.79999375,1.0,18.31631336385589,0.00570954645141228,1.3792979947960573,0.013194805362754365,0.2886527375,0.5412405329837057
0.001,1.799975,1.0,21.72551017859714,0.011286729718918902,1.378927374023529,0.03608383611007592,0.28865195,0.5421366237743385
0.0015,1.79994375,1.0,31.320925852444528,0.016832629398833253,1.3780248038704617,0.07125125606669028,0.2886506375,0.5443152029933004
0.002,1.7999,1.0,54.122278391966795,0.022347420966344973,1.3763331941561514,0.11548647289501088,0.2886488,0.5483843334701163
0.0025,1.79984375,1.0,98.02414618383774,0.02783127891302712,1.3738916485906398,0.16541049528077323,0.28864643749999996,0.5542252395222369
0.003,1.7997750000000001,1.0,162.1345750650405,0.03328437675373047,1.3711703898422833,0.21814226579305912,0.28864354999999997,0.560690502883697
0.0035,1.79969375,1.0,239.01173332266674,0.03870688702684568,1.3685438729577324,0.27146989753985395,0.2886401375,0.566885885539907
0.004,1.7996,1.0,322.8795840912091,0.04409898130489035,1.3661187134068002,0.3237455102545356,0.2886362,0.5725672439201188
0.0045000000000000005,1.7994937500000001,1.0,410.7304288171017,0.04946083019975215,1.3638885101603901,0.37382204279147513,0.2886317375,0.5777587760626647
0.005,1.799375,1.0,500.9057281124196,0.054792603354271635,1.3618266563633017,0.4209842073607472,0.28862675,0.5825302000795702
0.0055,1.79924375,1.0,592.2954701530028,0.060094469484797894,1.359909448655647,0.4648557804522155,0.2886212375,0.5869425662257279
0.006,1.7991000000000001,1.0,684.0244240666083,0.06536659633572346,1.3581190490273998,0.5053067735422755,0.2886152,0.5910419219506086
0.006500000000000001,1.79894375,1.0,775.3790361271313,0.07060915072507329,1.3564416979187786,0.5423738586254521,0.2886086375,0.5948638902575836
0.007,1.798775,1.0,865.7425204929881,0.07582229808785405,1.3548668743801113,0.5761992762310623,0.28860155,0.5984359102923797
0.0075,1.79859375,1.0,954.6981309725078,0.08100620469007248,1.3533844096185237,0.6069849129900576,0.2885939375,0.6017839892811463
0.008,1.7984,1.0,1041.7987758936483,0.08616103357159599,1.351987447849792,0.6349635118203907,0.2885858,0.6049261369776466
0.0085,1.79819375,1.0,1126.7140051952247,0.09128694744754118,1.3506694319514116,0.6603764266798582,0.2885771375,0.6078793032362062
0.009000000000000001,1.797975,1.0,1209.230688025713,0.09638410895219811,1.3494238602514825,0.6834606575554566,0.28856795,0.6106599677517615
0.0095,1.79774375,1.0,1289.1830557969345,0.10145267968322329,1.348245046682904,0.7044416776739049,0.2885582375,0.6132824855255807
0.01,1.7975,1.0,1366.4289744097912,0.10649281968049093,1.347128169876303,0.7235293290705519,0.288548,0.6157590359640581
0.0105,1.79724375,1.0,1440.8755920041328,0.1115046882160078,1.3460687292654718,0.7409157293557044,0.2885372375,0.6181008757161403
0.011,1.796975,1.0,1512.491098516521,0.11648844461716272,1.3450622779752335,0.756774837853633,0.28852595000000003,0.6203189550973939
0.0115,1.79669375,1.0,1581.2454710326006,0.12144424604430899,1.3441050520565179,0.7712633367377357,0.2885141375,0.6224225546848888
0.012,1.7964,1.0,1647.1394530196446,0.12637224902199187,1.3431934972422206,0.7845214627185214,0.28850180000000003,0.6244203553911158
0.0125,1.79609375,1.0,1710.199896749379,0.1312726094950231,1.3423242521307324,0.796674325273938,0.2884889375,0.626320492356935
0.013000000000000001,1.7957750000000001,1.0,1770.4859024771522,0.13614548355954031,1.3414940182734625,0.8078332671923004,0.28847555,0.6281308529446559
0.0135,1.79544375,1.0,1828.0367928578557,0.14099102472819383,1.3407000947130434,0.8180974751543512,0.2884616375,0.6298579255820257
0.014,1.7951000000000001,1.0,1882.9026604695337,0.14580938579249156,1.3399399653463164,0.8275551284197254,0.2884472,0.6315077167102845
0.0145,1.79474375,1.0,1935.156831092253,0.15060071942792422,1.3392111255627022,0.8362845719539709,0.2884322375,0.6330861361431273
0.015,1.794375,1.0,1984.8833423371268,0.15536517744217065,1.3385111922822817,0.8443554873398051,0.28841675,0.6345987649860592
0.0155,1.79399375,1.0,2032.165632902923,0.16010291148223457,1.337837995117963,0.8518299357235029,0.2884007375,0.6360506666284285
0.016,1.7936,1.0,2077.0713192994967,0.16481407034652076,1.3371897050609345,0.8587632896092651,0.2883842,0.6374461186253827
0.0165,1.7931937500000001,1.0,2119.6821133208787,0.16949880283343394,1.336564493102384,0.8652049186919402,0.2883671375,0.6387893558122939
0.017,1.792775,1.0,2160.0854162117234,0.1741572570265497,1.3359606038411922,0.8711989221793862,0.28834955,0.64008441539114
0.0175,1.7923437500000001,1.0,2198.3734663055398,0.17878958118108443,1.335376349475029,0.8767847498558887,0.2883314375,0.6413351537398061
0.018000000000000002,1.7919,1.0,2234.6408807020193,0.18339592332115132,1.3348101215402826,0.8819977502493912,0.2883128,0.6425452248538943
0.0185,1.79144375,1.0,2268.9531764836042,0.18797642756120123,1.3342606926082887,0.8868697236340829,0.2882936375,0.6437174406155202
0.019,1.790975,1.0,2301.383084733744,0.1925312380156851,1.3337268352503833,0.8914292349302115,0.28827395,0.6448545900311338
0.0195,1.79049375,1.0,2332.009956444163,0.19706049879905385,1.333207322037902,0.8957019848744808,0.2882537375,0.645959440498501
0.02,1.79,1.0,2360.9192018255576,0.20156435402575837,1.3327009255421802,0.8997111352038345,0.288233,0.6470347389776041
0.0205,1.78949375,1.0,2388.1821930135197,0.2060429452507374,1.3322066085053184,0.9034776350764692,0.2882117375,0.6480828101575069
0.021,1.788975,1.0,2413.89253150787,0.21049641730574772,1.331723163441158,0.9070203895209284,0.28818995000000003,0.6491063228207616
0.021500000000000002,1.78844375,1.0,2438.109147304874,0.21492490932301106,1.3312497603101385,0.9103565956103224,0.2881676375,0.650107131041058
0.022,1.7879,1.0,2460.894060113652,0.2193285603875877,1.3307855721850017,0.9135018503664468,0.2881448,0.6510870702622482
0.0225,1.78734375,1.0,2482.312417771479,0.22370750958453797,1.3303297721384888,0.916470321186082,0.28812143749999997,0.6520479644098662
0.023,1.786775,1.0,2502.4322313742678,0.22806189599892224,1.3298815332433411,0.9192748966793103,0.28809755,0.6529916263553011
0.0235,1.78619375,1.0,2521.314939842235,0.23239185648382382,1.3294401154457263,0.9219273348737653,0.28807313749999996,0.6539196758134775
0.024,1.7856,1.0,2539.0280294021745,0.2366975312214089,1.3290047429053298,0.9244383595564024,0.2880482,0.6548337982965493
0.0245,1.78499375,1.0,2555.624907702893,0.24097905603515504,1.3285747917703987,0.9268177943175167,0.2880227375,0.6557353514446401
0.025,1.784375,1.0,2571.1539951806267,0.24523656479504646,1.3281497009113707,0.9290746375735112,0.28799675,0.6566255541829653
0.025500000000000002,1.78374375,1.0,2585.6651980364186,0.2494701913710674,1.3277289091986832,0.931217134101081,0.2879702375,0.6575056188630142
0.026000000000000002,1.7831000000000001,1.0,2599.2097810277933,0.253680069633202,1.3273118555027734,0.9332528483939021,0.2879432,0.65837675142644
0.0265,1.78244375,1.0,2611.8402472406956,0.25786633345143456,1.326897978694079,0.9351887299838133,0.2879156375,0.6592401515488693
0.027,1.781775,1.0,2623.5993510574162,0.2620291133938909,1.3264868184566025,0.9370311858829142,0.28788755,0.6600968028510379
0.0275,1.7810937500000001,1.0,2634.5396472082543,0.26616854533169826,1.3260778323889364,0.9387861068927682,0.2878589375,0.660947854670066
0.028,1.7804,1.0,2644.7056595096456,0.27028476139861835,1.3256705606844523,0.9404589359604276,0.2878298,0.6617942790289364
0.0285,1.77969375,1.0,2654.131127779592,0.27437788961357595,1.3252646499363587,0.9420547119610526,0.2878001375,0.6626368223908738
0.029,1.778975,1.0,2662.850402132928,0.27844805799549593,1.3248597467378644,0.9435780922776166,0.28776995,0.6634762275172531
0.029500000000000002,1.7782437500000001,1.0,2670.89838946906,0.2824953945633033,1.3244554976821779,0.9450333866084166,0.2877392375,0.664313233494293
0.03,1.7775,1.0,2678.3105027287056,0.28652002733592274,1.3240515493625078,0.9464245873747905,0.287708,0.6651485757517799
0.0305,1.77674375,1.0,2685.1226129200477,0.29052208433227933,1.3236475483720627,0.9477553971079283,0.2876762375,0.6659829860738309
0.031,1.775975,1.0,2691.3708012256106,0.2945016934127205,1.3232431431594156,0.9490292533328489,0.28764395,0.6668171887768545
0.0315,1.7751937500000001,1.0,2697.0841053235235,0.29845897733102,1.322838049958815,0.9502493575262443,0.2876111375,0.6676517649833853
0.032,1.7744,1.0,2702.2992999970343,0.3023940683040875,1.3224319170774999,0.9514186824977365,0.2875778,0.6684874325565315
0.0325,1.77359375,1.0,2707.0389539444545,0.30630708836021786,1.3220245251977456,0.9525400092472033,0.2875439375,0.6693246338366279
0.033,1.772775,1.0,2711.3258523791396,0.3101981595277059,1.3216156550018279,0.9536159297763493,0.28750955,0.6701638088576061
0.0335,1.7719437500000002,1.0,2715.182976234804,0.31406740383484644,1.3212050871720225,0.9546488622050167,0.2874746375,0.671005395327849
0.034,1.7711000000000001,1.0,2718.6334824368264,0.31791494330993436,1.3207926023906047,0.9556410645070997,0.2874392,0.6718498286079828
0.0345,1.7702437500000001,1.0,2721.7006852402487,0.3217408999812645,1.3203779813398506,0.9565946470067159,0.2874032375,0.6726975416855943
0.035,1.7693750000000001,1.0,2724.4080386342575,0.32554539587713166,1.3199610047020356,0.9575115837595644,0.28736675,0.6735489651468877
0.035500000000000004,1.76849375,1.0,2726.7694937064925,0.32932854460950856,1.3195415407008266,0.9583937301410713,0.2873297375,0.6744043487453506
0.036000000000000004,1.7676,1.0,2728.8130501728474,0.3330904737271245,1.3191193306952225,0.9592428147707065,0.2872922,0.6752641989050805
0.0365,1.76669375,1.0,2730.564618446174,0.33683130944052564,1.3186941359584539,0.9600604603991364,0.2872541375,0.6761289786533626
0.037,1.765775,1.0,2732.0375054739866,0.34055116664817553,1.318265833031837,0.9608481989820463,0.28721555,0.6769989143002257
0.0375,1.76484375,1.0,2733.245077090692,0.34425016024853783,1.3178342984566882,0.9616074693791442,0.2871764375,0.6778742306267374
0.038,1.7639,1.0,2734.2007512417317,0.34792840514007606,1.3173994087743233,0.9623396240398959,0.28713679999999997,0.6787551508600449
0.0385,1.76294375,1.0,2734.9179915465897,0.35158601622125385,1.3169610405260583,0.9630459351385385,0.28709663750000003,0.6796418966474439
0.039,1.761975,1.0,2735.4103011987827,0.3552231083905347,1.3165190702532095,0.9637276002092428,0.28705595,0.6805346880294766
0.0395,1.7609937500000001,1.0,2735.691217204745,0.3588397965463824,1.3160733744970927,0.9643857473271061,0.2870147375,0.6814337434120554
0.04,1.76,1.0,2735.774304959924,0.3624361955872603,1.3156238297990244,0.965021439876055,0.286973,0.6823392795376164
0.0405,1.7589937500000001,1.0,2735.6731531632163,0.3660124204116322,1.3151703127003205,0.9656356809406397,0.2869307375,0.6832515114553004
0.041,1.757975,1.0,2735.4013690690454,0.3695685859179615,1.314712699742297,0.9662294173550426,0.28688795,0.6841706524901618
0.0415,1.75694375,1.0,2734.9691640157866,0.37310480162992943,1.314250898431427,0.9668035451584741,0.2868446375,0.6850968521525542
0.042,1.7559,1.0,2734.386488411489,0.37662117948904045,1.3137848187483814,0.9673589118640195,0.28680079999999997,0.6860302535811398
0.0425,1.75484375,1.0,2733.668924116405,0.3801178412922627,1.31331431960469,0.9678963163741385,0.2867564375,0.6869711005441652
0.043000000000000003,1.753775,1.0,2732.8233535716636,0.38359489435221006,1.3128393389622195,0.9684165187834396,0.28671155,0.6879194770334234
0.043500000000000004,1.75269375,1.0,2731.856664328447,0.3870524459814962,1.312359814782837,0.9689202388199887,0.28666613750000003,0.6888754659082645
0.044,1.7516,1.0,2730.775747489176,0.3904906034927348,1.3118756850284092,0.9694081583882319,0.2866202,0.6898391488777439
0.0445,1.75049375,1.0,2729.587496235766,0.3939094741985399,1.311386887660803,0.9698809239273924,0.2865737375,0.6908106064825206
0.045,1.7493750000000001,1.0,2728.2988044419108,0.39730916541152517,1.310893360641885,0.9703391486004143,0.28652675,0.6917899180765139
0.0455,1.74824375,1.0,2726.916565370881,0.40068978444430436,1.3103950419335229,0.9707834143271674,0.2864792375,0.6927771618083118
0.046,1.7471,1.0,2725.4476704597855,0.4040514386094913,1.3098918694975825,0.9712142736744045,0.2864312,0.6937724146023383
0.0465,1.7459437500000001,1.0,2723.899008187316,0.40739423521969975,1.3093837812959315,0.971632251613839,0.28638263750000004,0.6947757521397679
0.047,1.744775,1.0,2722.2774630284393,0.41071828158754353,1.3088707152904362,0.9720378471587207,0.28633355,0.6957872488392038
0.0475,1.74359375,1.0,2720.590013862314,0.41402368481773766,1.3083526085382635,0.9724315347968866,0.28628393750000003,0.6968069796162258
0.048,1.7424,1.0,2718.8433439372684,0.417310548619277,1.3078294007346636,0.9728137657665732,0.2862338,0.6978350128932969
0.0485,1.74119375,1.0,2717.0406501418797,0.42057897593359606,1.30730106327899,0.9731849717635359,0.2861831375,0.6988713536594455
0.049,1.739975,1.0,2715.1847538554553,0.42382906972901613,1.3067675709715814,0.9735455641950452,0.28613195,0.6999159993628693
0.0495,1.73874375,1.0,2713.278091990728,0.42706093295534675,1.3062289020984983,0.973895935325706,0.2860802375,0.7009689397944783
0.05,1.7375,1.0,2711.331002271414,0.4302746681098034,1.3056849628733602,0.9742364542315987,0.286028,0.7020303044423226
0.0505,1.7362486658313805,1.0,2709.578799242927,0.43347037679162315,1.3051358269375388,0.9745674839289127,0.285975443964918,0.7030998951503328
0.051000000000000004,1.7349972516684944,1.0,2708.358524349084,0.43664815997271944,1.3045818059453467,0.9748893863044318,0.28592288457007675,0.7041770519358137
0.051500000000000004,1.7337458375056083,1.0,2707.635397897215,0.43980811836806266,1.3040232501531823,0.9752025092582377,0.28587032517523553,0.7052610438976261
0.052000000000000005,1.732494423342722,1.0,2707.3688640727814,0.4429503519295406,1.303460527883703,0.9755071860960074,0.2858177657803943,0.7063511097466336
0.0525,1.7312430091798359,1.0,2707.522850532852,0.44607495994454144,1.3028939677325848,0.9758037326812465,0.2857652063855531,0.7074465698699358
0.053,1.7299915950169495,1.0,2708.0626609334895,0.44918204144938123,1.3023238866486684,0.9760924501823998,0.28571264699071186,0.708546771561362
0.0535,1.7287401808540634,1.0,2708.9572486053103,0.45227169471188783,1.301750568954261,0.976373624511204,0.2856600875958707,0.7096511292595018
0.054,1.7274887666911771,1.0,2710.180248396414,0.4553440165615772,1.3011742567537246,0.9766475264834715,0.2856075282010294,0.7107591424389081
0.0545,1.726237352528291,1.0,2711.709148724327,0.4583991023240501,1.3005951573651582,0.9769144130617361,0.28555496880618825,0.7118703806397187
0.055,1.7249859383654047,1.0,2713.502151801346,0.4614370555196273,1.300013654188217,0.9771745416266975,0.28550240941134697,0.7129840794025285
0.0555,1.7237345242025186,1.0,2715.542600931742,0.46445797012466045,1.2994299013963544,0.9774281442507172,0.2854498500165058,0.714099917569418
0.056,1.7224831100396325,1.0,2717.813849242319,0.4674619401155012,1.2988440531630243,0.9776754433461322,0.2853972906216646,0.7152175761769627
0.0565,1.7212316958767462,1.0,2720.299252256967,0.47044905946850113,1.2982562636616803,0.9779166521506621,0.28534473122682336,0.7163367384775964
0.057,1.71998028171386,1.0,2722.9821609967858,0.473419422160012,1.2976666870657765,0.9781519751846605,0.28529217183198213,0.717457089959455
0.0575,1.7187288675509738,1.0,2725.845915608355,0.47637312216638533,1.2970754775487658,0.9783816086820635,0.2852396124371409,0.718578318364709
0.058,1.7174774533880877,1.0,2728.8738395179616,0.4793102534639728,1.2964827892841027,0.9786057409967412,0.2851870530422997,0.7197001137063724
0.0585,1.7162260392252013,1.0,2732.049234113749,0.4822309100291261,1.2958887764452405,0.9788245529858404,0.28513449364745846,0.7208221682836049
0.059000000000000004,1.7149746250623152,1.0,2735.3614768752727,0.48513518172442877,1.2952935377918247,0.9790382149660619,0.28508193425261724,0.7219442810535339
0.059500000000000004,1.7137232108994291,1.0,2738.7936554695298,0.48802316531731543,1.2946972290150645,0.9792468942829651,0.285029374857776,0.7230661454427381
0.06,1.7124717967365428,1.0,2742.3352300910697,0.49089495220449325,1.2940999477041555,0.97945074820283,0.2849768154629348,0.7241875662002966
0.0605,1.7112203825736567,1.0,2745.978508729074,0.4937506315153892,1.2935017654497356,0.9796499263688953,0.2849242560680936,0.7253083982075523
0.061,1.7099689684107704,1.0,2749.715784099569,0.49659029237943003,1.2929027538424431,0.9798445727220227,0.28487169667325235,0.7264284974219171
0.0615,1.7087175542478843,1.0,2753.539332272402,0.49941402392604267,1.2923029844729157,0.9800348257634399,0.2848191372784111,0.7275477208808241
0.062,1.707466140084998,1.0,2757.441411411316,0.5022219152846539,1.2917025289317916,0.9802208188034728,0.2847665778835699,0.7286659267053486
0.0625,1.7062147259221119,1.0,2761.4142606284213,0.5050140555846906,1.2911014588097085,0.9804026801971141,0.2847140184887287,0.7297829741035063
0.063,1.7049633117592258,1.0,2765.4500989514745,0.5077905339555796,1.2904998456973045,0.980580533567219,0.28466145909388746,0.7308987233732216
0.0635,1.7037118975963395,1.0,2769.5438558796145,0.5105514347019586,1.289897736537287,0.9807544964049769,0.28460889969904624,0.7320130814749928
0.064,1.7024604834334534,1.0,2773.690267300573,0.5132968446410352,1.2892951798951526,0.9809246822075066,0.28455634030420507,0.7331259530912988
0.0645,1.701209069270567,1.0,2777.8778297134195,0.516026862870456,1.288692280421805,0.9810912040775209,0.2845037809093638,0.7342371403853887
0.065,1.699957655107681,1.0,2782.1035927091257,0.5187415728577227,1.2880890654555102,0.9812541661255061,0.2844512215145226,0.7353465891740141
0.0655,1.6987062409447946,1.0,2786.3645973523826,0.5214410580703372,1.2874855623345332,0.98141366877571,0.28439866211968134,0.7364542456925933
0.066,1.6974548267819085,1.0,2790.6578759994854,0.5241254019758014,1.2868817983971401,0.981569808923961,0.2843461027248402,0.7375600565957355
0.0665,1.6962034126190222,1.0,2794.980452131297,0.526794688041617,1.286277800981596,0.9817226800876462,0.2842935433299989,0.7386639689577222
0.067,1.694951998456136,1.0,2799.329340204106,0.5294489997352859,1.285673597426167,0.9818723725482985,0.28424098393515773,0.7397659302729345
0.0675,1.69370058429325,1.0,2803.701545515632,0.5320884205243098,1.2850692150691185,0.9820189734872028,0.2841884245403165,0.7408658884562394
0.068,1.6924491701303637,1.0,2808.0940640890267,0.5347130338761907,1.284464681248716,0.9821625671144117,0.2841358651454753,0.7419637918433242
0.0685,1.6911977559674776,1.0,2812.5038825724178,0.5373229232584303,1.283860023303225,0.9823032347915324,0.28408330575063406,0.7430595891909841
0.069,1.6899463418045912,1.0,2816.9279781555183,0.5399181721385304,1.283255268570911,0.9824410551486281,0.28403074635579284,0.744153229677363
0.0695,1.6886949276417051,1.0,2821.36331850261,0.542498863983993,1.28265044439004,0.9825761041955544,0.2839781869609516,0.7452446629021459
0.07,1.6874435134788188,1.0,2825.8074367131626,0.5450650790628252,1.2820455729620823,0.9827084549925311,0.2839256275661104,0.7463338481265647
0.07050000000000001,1.6861920993159327,1.0,2830.261806374429,0.5476168803374628,1.28144064124469,0.9828381755276681,0.28387306817126917,0.747420808213577
0.07100000000000001,1.6849406851530464,1.0,2834.7193052789285,0.5501543817157395,1.2808357129054306,0.9829653381587035,0.28382050877642795,0.7485054284339877
0.07150000000000001,1.6836892709901603,1.0,2839.179133705059,0.5526776597703811,1.2802307950637173,0.9830900080926718,0.2837679493815867,0.7495876961031789
0.07200000000000001,1.6824378568272742,1.0,2843.6404894212237,0.5551867910741132,1.279625894838962,0.9832122484436255,0.2837153899867455,0.7506675986463959
0.0725,1.6811864426643879,1.0,2848.1025676878166,0.5576818521996612,1.279021019350578,0.9833321203140044,0.2836628305919043,0.7517451235987385
