Time [s],Phi [rad],STIM [ ],Fsee [N],Gamma [ ],Lcerel [ ],q [ ],Lmtc [m],fisomrel [ ]
0.0,1.8,1.0,17.966351669211942,1.0364285599212766e-05,1.3793398365755238,0.005000028620836181,0.288653,0.5411393124580832
0.0005,1.79999375,1.0,18.275880855137885,0.005619515458948296,1.3793024836854546,0.012941527505737613,0.2886527375,0.5412296743305021
0.001,1.799975,1.0,21.617815445039668,0.011197203729134821,1.378938359934163,0.03561048189165386,0.28865195,0.5421100745229809
0.0015,1.79994375,1.0,31.06915958408162,0.01674360557903112,1.378046210239717,0.07060431571759329,0.2886506375,0.5442635935057005
0.002,1.7999,1.0,53.58318032665553,0.022258896499856053,1.3763680802746667,0.11472092913700029,0.2886488,0.5483005999692667
0.0025,1.79984375,1.0,97.12083704531827,0.027743250998744386,1.3739350757325122,0.1645780373059218,0.28864643749999996,0.5541216809213023
0.003,1.7997750000000001,1.0,160.9610834415424,0.03319684260645805,1.3712142345848788,0.21728369549181112,0.28864354999999997,0.5605867093162072
0.0035,1.79969375,1.0,237.68687737237653,0.03861984387698153,1.3685846250126361,0.27061611025491566,0.2886401375,0.5667900963147143
0.004,1.7996,1.0,321.47072755017064,0.04401242639830321,1.3661559876115623,0.3229189195961588,0.2886362,0.5724802064292138
0.0045000000000000005,1.7994937500000001,1.0,409.27200217732724,0.04937476079759997,1.363922714370555,0.37303746640427543,0.2886317375,0.5776793940215799
0.005,1.799375,1.0,499.4179576183913,0.054707016732332414,1.3618582477115682,0.42025022860243055,0.28862675,0.5824572977140094
0.0055,1.79924375,1.0,590.7950027540403,0.06000936293766705,1.3599387454463514,0.46417626091728137,0.2886212375,0.586875317367687
0.006,1.7991000000000001,1.0,682.5227813930222,0.06528196716973292,1.358146329803661,0.5046823174472347,0.2886152,0.5909796123984928
0.006500000000000001,1.79894375,1.0,773.8861976412373,0.07052499626209376,1.3564671692921217,0.5418029120337075,0.2886086375,0.5948059860231564
0.007,1.798775,1.0,864.2906792894552,0.07573861610326846,1.354890316361295,0.5756787433888706,0.28860155,0.5983828550796553
0.0075,1.79859375,1.0,953.247539802113,0.08092299165897497,1.3534067126776104,0.6065117064835995,0.2885939375,0.6017337226862403
0.008,1.7984,1.0,1040.3635761294315,0.08607828697275817,1.3520085709403638,0.6345336794198684,0.2885858,0.604878718062892
0.0085,1.79819375,1.0,1125.3265704474463,0.0912046651584784,1.3506890667684157,0.65998585068654,0.2885771375,0.6078353904626839
0.009000000000000001,1.797975,1.0,1207.8915641870763,0.09630228840506286,1.3494421527835723,0.6831056377687224,0.28856795,0.6106192023532606
0.0095,1.79774375,1.0,1287.8626511472492,0.10137131733118847,1.348262514891704,0.7041189406953926,0.2885582375,0.6132436885245716
0.01,1.7975,1.0,1365.1676541723516,0.10641191433622135,1.347144377504572,0.7232353666952964,0.288548,0.6157231542313879
0.0105,1.79724375,1.0,1439.679895238052,0.11142423748837071,1.346083691116189,0.7406475773418312,0.2885372375,0.6180678531358235
0.011,1.796975,1.0,1511.3337691722415,0.11640844483815486,1.3450764124941554,0.7565300136331282,0.28852595000000003,0.6202878492989907
0.0115,1.79669375,1.0,1580.1197277910587,0.12136469443609221,1.3441184984060708,0.771039487326884,0.2885141375,0.6223930454552011
0.012,1.7964,1.0,1646.0585848102794,0.1262931435799009,1.3432061465337308,0.7843163794883318,0.28850180000000003,0.6243926689460054
0.0125,1.79609375,1.0,1709.1785743604569,0.13119394846312546,1.3423359819588065,0.7964860368215665,0.2884889375,0.6262948834703435
0.013000000000000001,1.7957750000000001,1.0,1769.5027938899775,0.13606726349418466,1.3415051152056474,0.8076601830249502,0.28847555,0.6281066845930405
0.0135,1.79544375,1.0,1827.081212815426,0.14091324282816087,1.3407107096825042,0.8179381303250245,0.2884616375,0.6298348606748864
0.014,1.7951000000000001,1.0,1881.9841752046511,0.14573203990300623,1.33995001841406,0.827408136373554,0.2884472,0.6314859214932407
0.0145,1.79474375,1.0,1934.2904356312529,0.1505238082302349,1.3392204794919533,0.8361486816875107,0.2884322375,0.6330659001698
0.015,1.794375,1.0,1984.0582280912731,0.15528869829719325,1.3385199881585386,0.8442296800327317,0.28841675,0.634579775564869
0.0155,1.79399375,1.0,2031.3640928155783,0.16002686059122767,1.3378464396561707,0.851713324279922,0.2884007375,0.6360324719759229
0.016,1.7936,1.0,2076.2945758054443,0.16473844500697404,1.3371977993722894,0.8586550197748382,0.2883842,0.6374287120487412
0.0165,1.7931937500000001,1.0,2118.9421287726136,0.16942360141520316,1.3365721264065817,0.8651041955697274,0.2883671375,0.6387729710655357
0.017,1.792775,1.0,2159.400005665936,0.1740824791928912,1.3359676076963025,0.871105020326166,0.28834955,0.6400694087334929
0.0175,1.7923437500000001,1.0,2197.734765351998,0.17871522426096148,1.3353828189010872,0.8766970919771545,0.2883314375,0.6413213162817619
0.018000000000000002,1.7919,1.0,2234.022341130132,0.18332198254033744,1.3348163356805718,0.8819158668566138,0.2883128,0.6425319558719218
0.0185,1.79144375,1.0,2268.347261883423,0.18790289995194234,1.3342667336943919,0.886793143425684,0.2882936375,0.6437045623255182
0.019,1.790975,1.0,2300.7952056884033,0.19245812157258618,1.3337326550581174,0.8913575019656386,0.28827395,0.6448422032776135
0.0195,1.79049375,1.0,2331.4544615341597,0.19698779263198643,1.3332127849992375,0.8956346681832921,0.2882537375,0.6459478313553952
0.02,1.79,1.0,2360.4064003819612,0.20149205716839896,1.332705937641167,0.8996478558188205,0.288233,0.6470241041400253
0.0205,1.78949375,1.0,2387.7146574191474,0.20597105623480752,1.332211151995432,0.9034180676915922,0.2882117375,0.6480731839600381
0.021,1.788975,1.0,2413.447299140838,0.21042493088419587,1.331727467073559,0.9069642913648484,0.28818995000000003,0.6490972180770433
0.021500000000000002,1.78844375,1.0,2437.6764563148818,0.21485382216954774,1.3312539218870736,0.9103037201471106,0.2881676375,0.650098339395512
0.022,1.7879,1.0,2460.4737614881606,0.2192578703621029,1.330789595809404,0.9134519552182696,0.2881448,0.6510785819650864
0.0225,1.78734375,1.0,2481.908635027847,0.22363721529704542,1.3303336209316738,0.9164231782421469,0.28812143749999997,0.6520398561293661
0.023,1.786775,1.0,2502.055755473448,0.2279919977235715,1.3298851072859998,0.9192302869826533,0.28809755,0.6529841071138532
0.0235,1.78619375,1.0,2520.967117079096,0.2323223536061269,1.3294434050738748,0.9218850752393918,0.28807313749999996,0.6539127642006723
0.024,1.7856,1.0,2538.6968157192764,0.2366284189091574,1.329007864496792,0.9243983033551905,0.2880482,0.6548272484032545
0.0245,1.78499375,1.0,2555.300874107485,0.24091032959710879,1.3285778357562439,0.9267798030056061,0.2880227375,0.6557289727351493
0.025,1.784375,1.0,2570.837076376128,0.24516822163442684,1.3281526690537238,0.9290385700940852,0.28799675,0.6566193424519045
0.025500000000000002,1.78374375,1.0,2585.356929886233,0.24940222914047122,1.327731788206436,0.9311828586975281,0.2879702375,0.6574996013999103
0.026000000000000002,1.7831000000000001,1.0,2598.916862818683,0.2536124880939377,1.327314584011318,0.9332202372246293,0.2879432,0.6583710557828374
0.0265,1.78244375,1.0,2611.571232897383,0.25779913330206433,1.326900478467769,0.9351576631990944,0.2879156375,0.6592349399794124
0.027,1.781775,1.0,2623.3586768688847,0.26196229525978454,1.3264890498600366,0.9370015590591603,0.28788755,0.6600921566374062
0.0275,1.7810937500000001,1.0,2634.318717304012,0.26610210446203164,1.3260798764723687,0.9387578397031847,0.2878589375,0.6609436038257805
0.028,1.7804,1.0,2644.491686757137,0.270218691403739,1.3256725365890132,0.9404319593094459,0.2878298,0.6617901751010136
0.0285,1.77969375,1.0,2653.918655868789,0.2743121865798401,1.325266608494218,0.942028953270149,0.2878001375,0.6626327595620827
0.029,1.778975,1.0,2662.6413654109483,0.2783827204852682,1.324861670472231,0.943553475802583,0.28776995,0.663472241894106
0.029500000000000002,1.7782437500000001,1.0,2670.6615240360366,0.2824304203820768,1.324457674239005,0.9450098837426043,0.2877392375,0.6643087296792591
0.03,1.7775,1.0,2678.095463635895,0.2864554184969707,1.3240535226167838,0.9464020736017039,0.287708,0.665144497702977
0.0305,1.77674375,1.0,2684.95726099308,0.29045784114297557,1.3236490637510594,0.9477337824223511,0.2876762375,0.6659798582049192
0.031,1.7759773829938192,1.0,2691.357173938159,0.29443781333641067,1.323244344091562,0.9490085039359972,0.2876440500857404,0.6668147130510711
0.0315,1.7752101014681168,1.0,2697.742976535427,0.29839546009359535,1.3228394100880216,0.9502294840323589,0.2876118242616609,0.6676489645855173
0.032,1.7744428199424143,1.0,2704.1547309785315,0.3023309064308489,1.3224343081901688,0.9513997414015528,0.2875795984375814,0.6684825156311456
0.0325,1.7736755384167118,1.0,2710.5874102334647,0.3062442773644907,1.3220290848477334,0.9525220862199025,0.2875473726135019,0.6693152694902147
0.033,1.7729082568910093,1.0,2717.0360362672936,0.3101356977741295,1.3216237858448547,0.9535991369689752,0.28751514678942236,0.6701471313100225
0.0335,1.7721409753653066,1.0,2723.4887904919333,0.3140052909695957,1.3212185189956043,0.9546333426039246,0.2874829209653429,0.6709778796373426
0.034,1.771373693839604,1.0,2729.933496744664,0.3178531791816668,1.3208133948535836,0.9556269893338725,0.28745069514126337,0.6718072885284396
0.0345,1.7706064123139016,1.0,2736.363086194124,0.3216794835264888,1.3204084770860816,0.9565822079203954,0.28741846931718384,0.6726352289903634
0.035,1.769839130788199,1.0,2742.7704572659677,0.3254843251202074,1.3200038293603868,0.9575009911669714,0.2873862434931044,0.6734615726871442
0.035500000000000004,1.7690718492624966,1.0,2749.155072138224,0.3292678149317038,1.319599455601872,0.9583851957016825,0.28735401766902485,0.6742863137085047
0.036000000000000004,1.7683045677367941,1.0,2755.501136168237,0.3330300891193258,1.3191954977448639,0.9592365813152914,0.28732179184494533,0.675109165240461
0.0365,1.7675372862110916,1.0,2761.805195939541,0.33677126567072724,1.3187919855595256,0.9600567821830314,0.28728956602086586,0.6759300699713496
0.037,1.766770004685389,1.0,2768.065469278804,0.34049145997958324,1.3183889336068226,0.9608473297749466,0.28725734019678634,0.6767490017752241
0.0375,1.7660027231596864,1.0,2774.280168091658,0.34419078743956893,1.3179863564477203,0.9616096624464598,0.2872251143727068,0.6775659346718856
0.038,1.765235441633984,1.0,2780.4474985130732,0.3478693634443594,1.3175842686431842,0.9623451321360594,0.28719288854862735,0.6783808428264471
0.0385,1.7644681601082814,1.0,2786.5656610630513,0.3515273033876297,1.3171826847541803,0.9630550105106883,0.2871606627245478,0.6791937005488848
0.039,1.763700878582579,1.0,2792.6328508073266,0.355164722663055,1.3167816193416737,0.9637404946098981,0.2871284369004683,0.6800044822935809
0.0395,1.7629335970568765,1.0,2798.6472575221337,0.35878173666431035,1.31638108696663,0.9644027120346256,0.28709621107638883,0.680813162658845
0.04,1.7621663155311738,1.0,2804.6070658638414,0.36237846078507074,1.3159811021900147,0.9650427257218198,0.2870639852523093,0.6816197163864268
0.0405,1.7613990340054713,1.0,2810.510455543556,0.36595501041901146,1.3155816795727937,0.9656615383420338,0.2870317594282298,0.6824241183610158
0.041,1.7606317524797688,1.0,2816.3569787402002,0.36951149066583006,1.315182821351945,0.9662600934778153,0.2869995336041503,0.6832263683821045
0.0415,1.7598644709540663,1.0,2822.1467448311355,0.37304801479945277,1.3147845247931544,0.9668392834728916,0.2869673077800708,0.6840264762460075
0.042,1.7590971894283638,1.0,2827.877555395581,0.37656471500179434,1.3143868078010232,0.9673999566537528,0.28693508195599127,0.6848244103338089
0.0425,1.7583299079026613,1.0,2833.550078938051,0.38006169824328023,1.3139896626508056,0.9679429089902275,0.2869028561319118,0.6856201905243409
0.043000000000000003,1.7575626263769588,1.0,2839.164989626197,0.38353907149433575,1.313593081617756,0.9684688938306756,0.2868706303078323,0.6864138366118606
0.043500000000000004,1.756795344851256,1.0,2844.72296719397,0.38699694172538646,1.3131970569771283,0.9689786246147182,0.28683840448375275,0.6872053683063312
0.044,1.7560280633255536,1.0,2850.2246968454615,0.3904354159068577,1.3128015810041773,0.9694727773871484,0.2868061786596733,0.6879948052336962
0.0445,1.7552607817998511,1.0,2855.670869160141,0.39385460100917496,1.3124066459741572,0.9699519931294381,0.28677395283559376,0.688782166936153
0.045,1.7544935002741486,1.0,2861.0621799997803,0.39725460400276363,1.312012244162322,0.9704168799237435,0.28674172701151424,0.6895674728724219
0.0455,1.7537262187484461,1.0,2866.3993304164687,0.40063553185804923,1.3116183678439264,0.9708680149629793,0.28670950118743477,0.6903507424180082
0.046,1.7529589372227437,1.0,2871.6830265615135,0.40399749154545705,1.3112250092942244,0.9713059464192938,0.28667727536335524,0.6911319948654655
0.0465,1.752191655697041,1.0,2876.9139795967735,0.4073405900354126,1.3108321607884703,0.9717311951822,0.2866450495392757,0.691911249424651
0.047,1.7514243741713384,1.0,2882.092905606207,0.41066493429834133,1.3104398146019187,0.9721442564766108,0.2866128237151962,0.6926885252229794
0.0475,1.750657092645636,1.0,2887.220525509208,0.41397063130466866,1.3100479630098236,0.9725456013701475,0.2865805978911167,0.6934638413056731
0.048,1.7498898111199335,1.0,2892.297564975442,0.41725778802482,1.3096565982874393,0.9729356781782662,0.2865483720670372,0.6942372166360059
0.0485,1.749122529594231,1.0,2897.3241369044767,0.42052647849745645,1.3092657181573135,0.9733149101007865,0.2865161462429577,0.6950086593515342
0.049,1.7483552480685285,1.0,2902.3020741265345,0.42377682755111556,1.308875305202733,0.9736837055230851,0.2864839204188782,0.6957782073849441
0.0495,1.747587966542826,1.0,2907.233077545522,0.4270089668471052,1.3084853432417398,0.9740424544842778,0.2864516945947987,0.6965458960619451
0.05,1.7468206850171233,1.0,2912.118016335474,0.43022299325092067,1.3080958234786686,0.974391525271825,0.28641946877071917,0.697311746029978
0.0505,1.7460534034914208,1.0,2916.9577643431185,0.43341900362805713,1.3077067371178537,0.9747312692671597,0.28638724294663964,0.6980757778452937
0.051000000000000004,1.7452861219657183,1.0,2921.7532000024335,0.4365970948440099,1.3073180753636298,0.9750620218724749,0.2863550171225602,0.6988380119731964
0.051500000000000004,1.7445188404400158,1.0,2926.505206251054,0.4397573637642741,1.3069298294203313,0.9753841033787707,0.28632279129848065,0.6995984687882855
0.052000000000000005,1.7437515589143133,1.0,2931.214670448393,0.4428999072543451,1.3065419904922928,0.9756978197793714,0.2862905654744011,0.700357168574691
0.0525,1.7429842773886108,1.0,2935.882484295341,0.446024822179718,1.306154549783849,0.9760034635327903,0.28625833965032166,0.7011141315263034
0.053,1.7422169958629083,1.0,2940.509543755583,0.4491322054058881,1.3057674984993342,0.976301314278503,0.28622611382624213,0.7018693777470015
0.0535,1.7414497143372056,1.0,2945.0967489791697,0.4522221537983507,1.305380827843083,0.9765916395089241,0.2861938880021626,0.7026229272508716
0.054,1.7406824328115031,1.0,2949.6450042272654,0.4552947642226009,1.3049945290194298,0.9768746952006149,0.28616166217808314,0.7033747999624241
0.0545,1.7399151512858007,1.0,2954.1552177984677,0.458350133544134,1.3046085932327096,0.9771507264075233,0.2861294363540036,0.7041250157168037
0.055,1.7391478697600982,1.0,2958.628301957633,0.4613883586284453,1.3042230116872564,0.9774199678188422,0.2860972105299241,0.7048735942599983
0.0555,1.7383805882343957,1.0,2963.065172865799,0.4644095363410299,1.303837775587405,0.9776826442838737,0.2860649847058446,0.705620555249036
0.056,1.7376133067086932,1.0,2967.466750511621,0.46741376354738307,1.3034528761374902,0.9779389713061094,0.2860327588817651,0.7063659182521844
0.0565,1.7368460251829907,1.0,2971.8339586453385,0.4704011371130001,1.303068304541846,0.9781891555085728,0.2860005330576856,0.7071097027491418
0.057,1.736078743657288,1.0,2976.1677247138823,0.47337175390337616,1.3026840520048075,0.9784333950723143,0.2859683072336061,0.7078519281312212
0.0575,1.7353114621315855,1.0,2980.46897979735,0.47632571078400654,1.3023001097307088,0.9786718801498191,0.2859360814095266,0.7085926137015353
0.058,1.734544180605883,1.0,2984.7386585483277,0.4792631046203864,1.3019164689238845,0.9789047932549483,0.28590385558544706,0.7093317786751694
0.0585,1.7337768990801805,1.0,2988.9759764562486,0.4821839805915782,1.301533135752045,0.9791323060873427,0.2858716297613676,0.7100694134041416
0.059000000000000004,1.733009617554478,1.0,2993.183702989981,0.4850884929553188,1.3011500855221907,0.9793545910597353,0.2858394039372881,0.7108055675700805
0.059500000000000004,1.7322423360287755,1.0,2997.362463950247,0.4879767310508775,1.3007673122097272,0.9795718094041246,0.28580717811320855,0.7115402548027312
0.06,1.7314750545030728,1.0,3001.5128024929136,0.49084878164472356,1.3003848105277005,0.9797841159348424,0.2857749522891291,0.7122734872584103
0.0605,1.7307077729773703,1.0,3005.635263958352,0.49370473150332606,1.3000025751891562,0.979991659518465,0.28574272646504956,0.7130052770404167
0.061,1.7299404914516678,1.0,3009.7303958401785,0.4965446673931541,1.29962060090714,0.9801945833480827,0.28571050064097003,0.713735636199121
0.0615,1.7291732099259653,1.0,3013.7987477541046,0.4993686760806769,1.2992388823946976,0.9803930252028975,0.28567827481689057,0.7144645767320545
0.062,1.7284059284002629,1.0,3017.8408714074376,0.5021768443323635,1.2988574143648748,0.9805871176940377,0.28564604899281104,0.7151921105839973
0.0625,1.7276386468745604,1.0,3021.857320569929,0.5049692589146831,1.298476191530717,0.9807769884974247,0.2856138231687315,0.7159182496470623
0.063,1.7268713653488579,1.0,3025.8486510444445,0.5077460065941047,1.2980952086052702,0.9809627605744594,0.28558159734465205,0.7166430057607796
0.0635,1.7261040838231552,1.0,3029.8154206382214,0.5105071741370977,1.29771446030158,0.9811445523812585,0.2855493715205725,0.7173663907121778
0.064,1.7253368022974527,1.0,3033.758189135715,0.513252848310131,1.2973339413326919,0.9813224780671074,0.285517145696493,0.7180884162358654
0.0645,1.7245695207717502,1.0,3037.6775182709193,0.5159831158796737,1.296953646411652,0.9814966476627682,0.28548491987241353,0.7188090940141058
0.065,1.7238022392460477,1.0,3041.5739717008655,0.5186980636121952,1.2965735702515058,0.9816671672592258,0.285452694048334,0.7195284356768978
0.0655,1.7230349577203452,1.0,3045.448114979876,0.5213977782741643,1.296193707565299,0.9818341391774257,0.2854204682242545,0.7202464528020478
0.066,1.7222676761946427,1.0,3049.300515534094,0.5240823466320503,1.295814053066077,0.9819976621295206,0.285388242400175,0.7209631569152428
0.0665,1.72150039466894,1.0,3053.131742636489,0.5267518554523225,1.2954346014668863,0.9821578313721053,0.2853560165760955,0.7216785594901215
0.067,1.7207331131432375,1.0,3056.942367383392,0.5294063915014497,1.2950553474807718,0.9823147388518949,0.28532379075201597,0.7223926719483451
0.0675,1.719965831617535,1.0,3060.732962670602,0.5320460415459012,1.2946762858207794,0.9824684733442666,0.28529156492793645,0.723105505659663
0.068,1.7191985500918325,1.0,3064.5034006012106,0.5346708578960472,1.294297417226889,0.9826191186697616,0.285259339103857,0.7238170606300458
0.0685,1.71843126856613,1.0,3068.2540104456143,0.5372809213015592,1.2939187385200046,0.9827667574482861,0.28522711327977746,0.7245273442181415
0.069,1.7176639870404276,1.0,3071.9863336531016,0.5398763723042389,1.2935402361449706,0.9829114727539442,0.285194887455698,0.7252363831758766
0.0695,1.716896705514725,1.0,3075.7006458780024,0.5424572875844017,1.2931619074201595,0.9830533413970427,0.28516266163161846,0.7259441837939218
0.07,1.7161294239890224,1.0,3079.3972237340563,0.5450237438223635,1.2927837496639438,0.9831924376447592,0.28513043580753894,0.7266507523364831
0.07050000000000001,1.7153621424633199,1.0,3083.0763447839286,0.5475758176984399,1.292405760194696,0.9833288333226602,0.2850982099834594,0.7273560950413325
0.07100000000000001,1.7145948609376174,1.0,3086.7382875292965,0.5501135858929466,1.2920279363307892,0.9834625979115115,0.2850659841593799,0.7280602181198359
