Time [s],Phi [rad],STIM [ ],Fsee [N],Gamma [ ],Lcerel [ ],q [ ],Lmtc [m],fisomrel [ ]
0.0,1.8,1.0,18.001691150753626,0.000186952154715632,1.379335879227925,0.00500910213606858,0.288653,0.5411488862575798
0.0005,1.79999375,1.0,18.36887513500265,0.005795112809806064,1.3792921666946354,0.013439064045954494,0.2886527375,0.5412546310079367
0.001,1.799975,1.0,21.841899706776164,0.011371816117705942,1.3789155317305817,0.03653662004268735,0.28865195,0.5421652417516918
0.0015,1.79994375,1.0,31.575915664539973,0.01691723853022571,1.378003210935408,0.07186818105052571,0.2886506375,0.5443672593192651
0.002,1.7999,1.0,54.652787914410766,0.022431555507346178,1.3762990330305176,0.11621526582424282,0.2886488,0.5484663193249282
0.0025,1.79984375,1.0,98.90027200189036,0.027914941525829375,1.3738497190462404,0.16620219760149071,0.28864643749999996,0.5543252154625227
0.003,1.7997750000000001,1.0,163.26456589405464,0.033367570085408964,1.3711283201100049,0.21895828114808713,0.28864354999999997,0.5607900829474675
0.0035,1.79969375,1.0,240.2829689968661,0.038789613709669116,1.3685048762884637,0.27228099806142314,0.2886401375,0.5669775387488012
0.004,1.7996,1.0,324.2287976411593,0.04418124395641046,1.3660830933347632,0.32453051046749176,0.2886362,0.5726504106328159
0.0045000000000000005,1.7994937500000001,1.0,412.1253748694305,0.04954263142296887,1.363855851521873,0.3745669591896238,0.2886317375,0.5778345641367751
0.005,1.799375,1.0,502.32739284410684,0.05487394573807508,1.3617965125116518,0.42168096059583754,0.28862675,0.5825997561683871
0.0055,1.79924375,1.0,593.7284529156075,0.06017535560070537,1.3598815041329027,0.4655007530631913,0.2886212375,0.587006705940815
0.006,1.7991000000000001,1.0,685.4572682829955,0.06544702874473593,1.3580930460370435,0.5058994363841874,0.2886152,0.5911013086094128
0.006500000000000001,1.79894375,1.0,776.8010178694025,0.07068913196021633,1.3564174583219217,0.54291572559047,0.2886086375,0.5949189904443277
0.007,1.798775,1.0,867.1692638080085,0.07590183115112516,1.3548438567804881,0.5766928371078365,0.28860155,0.598488001610805
0.0075,1.79859375,1.0,956.0730645922222,0.08108529113883291,1.3533632854417799,0.6074340512147132,0.2885939375,0.6018315959878546
0.008,1.7984,1.0,1043.1330094046755,0.08623967616592515,1.3519678238144521,0.6353717051436967,0.2885858,0.6049701881355829
0.0085,1.79819375,1.0,1128.0264032117109,0.09136514905624155,1.3506508701686513,0.6607471541372716,0.2885771375,0.607920813934846
0.009000000000000001,1.797975,1.0,1210.514824722712,0.0964618720120188,1.3494063283588764,0.683797505978502,0.28856795,0.6106990360419932
0.0095,1.79774375,1.0,1290.4326203633916,0.10153000665706695,1.3482285238851688,0.7047480151227911,0.2885582375,0.6133191809717999
0.01,1.7975,1.0,1367.6365727647517,0.10656971288218926,1.3471126595677285,0.7238082676516289,0.288548,0.6157933723463591
0.0105,1.79724375,1.0,1442.040729975873,0.11158115004707185,1.3460541557702677,0.7411700591163104,0.2885372375,0.6181330397771918
0.011,1.796975,1.0,1513.6169319237242,0.11656447753517785,1.3450485333057507,0.7570070591700612,0.28852595000000003,0.6203492017332597
0.0115,1.79669375,1.0,1582.3355773703477,0.1215198525707123,1.3440920359299102,0.7714756947865808,0.2885141375,0.6224511186530911
0.012,1.7964,1.0,1648.1907775979923,0.12644743149053078,1.343181197677904,0.7847160005671694,0.28850180000000003,0.6244472753837991
0.0125,1.79609375,1.0,1711.211982458693,0.13134737027377164,1.3423126318400038,0.7968528515505983,0.2884889375,0.6263458612333228
0.013000000000000001,1.7957750000000001,1.0,1771.4546011776326,0.13621982475184394,1.3414830870073695,0.8079974084436787,0.28847555,0.6281546597191241
0.0135,1.79544375,1.0,1828.9672297168472,0.1410649490068292,1.3406897617097715,0.8182486385384249,0.2884616375,0.6298803771241681
0.014,1.7951000000000001,1.0,1883.7967957290277,0.14588289555670925,1.3399301811509583,0.827694578850973,0.2884472,0.6315289283886374
0.0145,1.79474375,1.0,1936.0142568823896,0.1506738169194659,1.3392018705346784,0.8364134438940349,0.2884322375,0.6331061576077017
0.015,1.794375,1.0,1985.6928888820548,0.1554378645598797,1.3385025641373314,0.8444748292860107,0.28841675,0.6346173918126654
0.0155,1.79399375,1.0,2032.9375821003462,0.16017519080373369,1.337829863905494,0.8519406066743096,0.2884007375,0.6360681857576385
0.016,1.7936,1.0,2077.816257501738,0.16488594454407968,1.3371819436087624,0.8588660560753004,0.2883842,0.6374628090057952
0.0165,1.7931937500000001,1.0,2120.4015736497504,0.16957027413147413,1.3365570727929672,0.8653004941477879,0.2883671375,0.6388052830134865
0.017,1.792775,1.0,2160.778666706604,0.17422832791647347,1.3359535210039384,0.8712879518444866,0.28834955,0.6400995909600011
0.0175,1.7923437500000001,1.0,2199.033605660819,0.17886025326170663,1.335369663886153,0.8768678279543358,0.2883314375,0.6413494532681403
0.018000000000000002,1.7919,1.0,2235.262336734903,0.1834661982514575,1.3348038789659067,0.8820754055742794,0.2883128,0.642558554302878
0.0185,1.79144375,1.0,2269.540698233145,0.18804630800021524,1.3342548356726933,0.8869424047349652,0.2882936375,0.6437299261142245
0.019,1.790975,1.0,2301.9412774551647,0.19260072648666238,1.3337213100153462,0.8914973457705412,0.28827395,0.6448663496225804
0.0195,1.79049375,1.0,2332.5432523476175,0.19712959768948138,1.3332020780026979,0.8957658899350429,0.2882537375,0.6459705842304977
0.02,1.79,1.0,2361.4285447266266,0.20163306505219136,1.3326959477856388,0.8997711710764987,0.288233,0.647045300787677
0.0205,1.78949375,1.0,2388.675226783305,0.20611127138691623,1.3322018177068287,0.9035340922082802,0.2882117375,0.648092960179461
0.021,1.788975,1.0,2414.365894961819,0.210564360386016,1.3317185883279163,0.9070735537482558,0.28818995000000003,0.6491160017784897
0.021500000000000002,1.78844375,1.0,2438.560506910783,0.2149924712564078,1.331245419573898,0.9104067239001101,0.2881676375,0.6501163010564803
0.022,1.7879,1.0,2461.322458851345,0.21939574320500874,1.3307814713697694,0.9135491733315406,0.2881448,0.6510957212960791
0.0225,1.78734375,1.0,2482.7183008690163,0.22377431543873608,1.3303259036405266,0.9165150459151548,0.28812143749999997,0.6520561141073646
0.023,1.786775,1.0,2502.8174678521405,0.2281283271645069,1.3298778763111656,0.9193172092344585,0.28809755,0.6529993198993473
0.0235,1.78619375,1.0,2521.6796019926473,0.23245791466760232,1.3294366667981459,0.9219674078570825,0.28807313749999996,0.6539269214570389
0.024,1.7856,1.0,2539.375882880998,0.2367632192002766,1.3290014647078854,0.9244763448770851,0.2880482,0.6548406767221494
0.0245,1.78499375,1.0,2555.95679686455,0.2410443757503073,1.3285716741890636,0.9268538353882481,0.2880227375,0.6557418843131244
0.025,1.784375,1.0,2571.470642843629,0.24530151820255783,1.3281467354911125,0.9291088659672868,0.28799675,0.6566317601611156
0.025500000000000002,1.78374375,1.0,2585.9672016771055,0.24953478044189165,1.3277260888634643,0.9312496707072034,0.2879702375,0.6575115136424001
0.026000000000000002,1.7831000000000001,1.0,2599.4976093826544,0.2537442963531722,1.3273091745555505,0.9332838044467582,0.2879432,0.6583823477415949
0.0265,1.78244375,1.0,2612.114237283863,0.25793019982126286,1.3268954328168032,0.9352182079798047,0.2879156375,0.6592454591948818
0.027,1.781775,1.0,2623.860470400574,0.2620926216636778,1.3264843976122938,0.9370592793955995,0.28788755,0.6601018434813064
0.0275,1.7810937500000001,1.0,2634.7871251544448,0.26623169714659795,1.3260755427799904,0.9388129043623279,0.2878589375,0.6609526160737713
0.028,1.7804,1.0,2644.940244287535,0.2703475588878267,1.3256683945325767,0.9404845171446334,0.2878298,0.6617987780694323
0.0285,1.77969375,1.0,2654.353553261578,0.2744403348584351,1.3252625997108527,0.9420791505550634,0.2878001375,0.6626410753486531
0.029,1.778975,1.0,2663.0613865599375,0.2785101530294941,1.3248578051556181,0.9436014564560018,0.28776995,0.6634802500939874
0.029500000000000002,1.7782437500000001,1.0,2671.0986342705387,0.28255714137207466,1.324453657707673,0.94505573951219,0.2877392375,0.6643170408166841
0.03,1.7775,1.0,2678.5006914342184,0.28658142785724766,1.3240498042078177,0.9464459875496402,0.287708,0.6651521823752392
0.0305,1.77674375,1.0,2685.303410158928,0.2905831404560842,1.3236458914968519,0.947775898899067,0.2876762375,0.665986405985995
0.031,1.775975,1.0,2691.543054498315,0.29456240713965515,1.3232415664155754,0.94904890705615,0.28764395,0.6668204392257817
0.0315,1.7751937500000001,1.0,2697.2486379721986,0.2985193504049668,1.3228365454816544,0.9502682099219782,0.2876111375,0.6676548625684684
0.032,1.7744,1.0,2702.4563365820836,0.3024541025737383,1.322430482529161,0.9514367777815155,0.2875778,0.668490382449019
0.0325,1.77359375,1.0,2707.1889198871563,0.3063667858398772,1.3220231564394866,0.9525573884491471,0.2875439375,0.6693274448875954
0.033,1.772775,1.0,2711.469116700368,0.31025752218395125,1.3216143484434166,0.9536326312096453,0.28750955,0.6701664887605759
0.0335,1.7719437500000002,1.0,2715.319851030882,0.3141264335865283,1.3212038397717374,0.9546649216823103,0.2874746375,0.6710079506246558
0.034,1.7711000000000001,1.0,2718.7642224210676,0.317973642028176,1.3207914116552344,0.9556565155371918,0.2874392,0.6718522646946491
0.0345,1.7702437500000001,1.0,2721.825487344396,0.32179926948946214,1.320376845324694,0.9566095209735695,0.2874032375,0.6726998628182306
0.035,1.7693750000000001,1.0,2724.527041664725,0.3256034379509544,1.319959922010902,0.957525910085405,0.28736675,0.6735511744476326
0.035500000000000004,1.76849375,1.0,2726.883132319249,0.3293862614253854,1.3195405072625013,0.9584075362011939,0.2873297375,0.6744064547781359
0.036000000000000004,1.7676,1.0,2728.920259601756,0.3331478657173128,1.319118356088947,0.9592561272333027,0.2872922,0.6752661824205614
0.0365,1.76669375,1.0,2730.666765209148,0.3368883789701364,1.318693207672678,0.9600733024981414,0.2872541375,0.6761308653804187
0.037,1.765775,1.0,2732.135670102174,0.3406079159637098,1.3182649411749419,0.9608605927591509,0.28721555,0.6770007245500982
0.0375,1.76484375,1.0,2733.340053408895,0.3443065914778865,1.317833435756986,0.961619435771151,0.2871764375,0.6778759793205031
0.038,1.7639,1.0,2734.2930458160904,0.34798452029251997,1.3173985705800577,0.9623511829587571,0.28713679999999997,0.6787568475565565
0.0385,1.76294375,1.0,2735.007823284325,0.3516418171874638,1.3169602248054044,0.9630571055447759,0.28709663750000003,0.6796435455717713
0.039,1.761975,1.0,2735.497601086625,0.35527859694257147,1.3165182775942739,0.963738400179373,0.28705595,0.6805362881018948
0.0395,1.7609937500000001,1.0,2735.775628171563,0.3588949743376965,1.3160726081079133,0.9643961941156288,0.2870147375,0.6814352882776196
0.04,1.76,1.0,2735.855181849172,0.3624910641526925,1.3156230955075703,0.9650315499725098,0.286973,0.6823407575963623
0.0405,1.7589937500000001,1.0,2735.7495628013917,0.3660669811674129,1.3151696189544924,0.9656454701221796,0.2869307375,0.6832529058931125
0.041,1.757975,1.0,2735.4720904158107,0.36962284016171126,1.3147120576099267,0.9662389007349296,0.28688795,0.6841719413103513
0.0415,1.75694375,1.0,2735.035311692914,0.37315875456473385,1.3142502977791428,0.9668127358893438,0.2868446375,0.6850980559493625
0.042,1.7559,1.0,2734.4456972893026,0.37667482745812586,1.3137842810460654,0.9673678235365488,0.28680079999999997,0.6860313296186348
0.0425,1.75484375,1.0,2733.7226323008836,0.3801711867825971,1.3133138317923763,0.9679049600290041,0.2867564375,0.6869720752792684
0.043000000000000003,1.753775,1.0,2732.8727634162465,0.3836479397152876,1.3128388901205983,0.9684249050155859,0.28671155,0.6879203725386231
0.043500000000000004,1.75269375,1.0,2731.9027423761236,0.38710519343333744,1.3123593961332547,0.9689283778083139,0.28666613750000003,0.6888762998956266
0.044,1.7516,1.0,2730.819224481931,0.39054305511388654,1.3118752899328685,0.969416059923069,0.2866202,0.6898399347234988
0.0445,1.75049375,1.0,2729.628867184688,0.39396163193407513,1.3113865116219625,0.969888597435969,0.2865737375,0.6908113532522494
0.045,1.7493750000000001,1.0,2728.338328752551,0.3973610310710432,1.3108930013030602,0.9703466031704668,0.28652675,0.691790630550942
0.0455,1.74824375,1.0,2726.954267018562,0.4007413597019308,1.3103946990786846,0.9707906587288656,0.2864792375,0.6927778405097349
0.046,1.7471,1.0,2725.4833382078605,0.404102725003878,1.3098915450513584,0.9712213163807272,0.2864312,0.6937730558216898
0.0465,1.7459437500000001,1.0,2723.9321958441274,0.4074452341540248,1.309383479323605,0.9716391008195273,0.28638263750000004,0.6947763479643511
0.047,1.744775,1.0,2722.3074897356287,0.4107689943295113,1.3088704419979473,0.972044510797929,0.28633355,0.6957877871810991
0.0475,1.74359375,1.0,2720.615755563503,0.41407411214427375,1.3083523741736462,0.9724380206497598,0.28628393750000003,0.6968074405021545
0.048,1.7424,1.0,2718.8603793046846,0.41736067333525473,1.307829245586689,0.9728200810994112,0.2862338,0.6978353174793686
0.0485,1.74119375,1.0,2717.052860356781,0.4206288123699174,1.3073009520386958,0.9731911221895833,0.2861831375,0.698871571671273
0.049,1.739975,1.0,2715.196351886994,0.4238786285988172,1.3067674652724286,0.973551554369204,0.28613195,0.6999162061553869
0.0495,1.73874375,1.0,2713.2940042405266,0.4271102213725095,1.3062287570306481,0.9739017687750314,0.2860802375,0.7009692231105367
0.05,1.7375,1.0,2711.348964665798,0.43032369004154963,1.305684799056116,0.9742421383120687,0.286028,0.7020306238074681
0.0505,1.73624375,1.0,2709.36437705808,0.4335191339564931,1.3051355630915935,0.9745730186641424,0.2859752375,0.7031004085994137
0.051000000000000004,1.734975,1.0,2707.3433817205164,0.4366966524678952,1.3045810208798418,0.9748947492397425,0.28592195,0.7041785769126063
0.051500000000000004,1.73369375,1.0,2705.289115143132,0.4398563449263113,1.304021144163622,0.9752076540578086,0.2858681375,0.7052651272367416
0.052000000000000005,1.7324,1.0,2703.2047097988343,0.4429983106822969,1.303455904685696,0.9755120425777714,0.2858138,0.7063600571153885
0.0525,1.73109375,1.0,2701.0932939583827,0.44612264908640725,1.3028852741888244,0.9758082104778109,0.28575893750000003,0.7074633631363543
0.053,1.729775,1.0,2698.9579915216023,0.4492294594891978,1.3023092244157688,0.9760964403849878,0.28570355000000003,0.7085750409219909
0.0535,1.72844375,1.0,2696.8019218675,0.45231884124122396,1.3017277271092906,0.9763770025606076,0.2856476375,0.7096950851194561
0.054,1.7271,1.0,2694.6281997215665,0.4553908936930411,1.301140754012151,0.9766501555439245,0.2855912,0.7108234893909222
0.0545,1.7257437500000001,1.0,2692.439935040389,0.4584457161952045,1.3005482768671113,0.9769161467570504,0.2855342375,0.7119602464037316
0.055,1.724375,1.0,2690.235038065525,0.46148337961914304,1.29995031497947,0.9771752131767764,0.28547675,0.7131052568358314
0.0555,1.72299375,1.0,2688.0188460884597,0.4645040020824542,1.2993468196596012,0.977427582282583,0.2854187375,0.7142585508918438
0.056,1.7216,1.0,2685.7967202548125,0.4675076995031422,1.2987377419200228,0.9776734717469473,0.2853602,0.715420158011881
0.0565,1.72019375,1.0,2683.5695980062355,0.47049456218870134,1.298123073245014,0.977913090157397,0.28530113749999997,0.7165900293333802
0.057,1.718775,1.0,2681.3384152646804,0.473464680446626,1.2975028051188546,0.9781466375246568,0.28524155,0.7177681152627959
0.0575,1.71734375,1.0,2679.1041064226074,0.47641814458441056,1.2968769290258242,0.978374305702491,0.2851814375,0.718954365472563
0.058,1.7159,1.0,2676.867604335549,0.4793550449095494,1.2962454364502023,0.9785962787837301,0.2851208,0.7201487288980521
0.0585,1.71444375,1.0,2674.6298403158253,0.48227547172953683,1.2956083188762682,0.9788127334740118,0.2850596375,0.7213511537345235
0.059000000000000004,1.7129750000000001,1.0,2672.391744127804,0.48517951535186726,1.2949655677883016,0.9790238394446584,0.28499795,0.7225615874340716
0.059500000000000004,1.71149375,1.0,2670.1542439849954,0.48806726608403506,1.2943171746705824,0.9792297596660078,0.2849357375,0.7237799767025699
0.06,1.71,1.0,2667.918266548558,0.4909388142335345,1.2936631310073896,0.9794306507224223,0.284873,0.7250062674966095
0.0605,1.7084937500000001,1.0,2665.684736927612,0.4937942501078601,1.293003428283003,0.9796266631101235,0.2848097375,0.726240405020431
0.061,1.7069750000000001,1.0,2663.454578681087,0.49663366401450615,1.292338057981702,0.9798179415189066,0.28474595,0.727482333722854
0.0615,1.7054437500000001,1.0,2661.228713820928,0.49945714626096704,1.2916670115877664,0.9800046250987268,0.2846816375,0.7287319972942019
0.062,1.7039,1.0,2659.008062817551,0.5022647871547371,1.2909902805854756,0.9801868477120782,0.2846168,0.7299893386632212
0.0625,1.70234375,1.0,2656.7935446059355,0.5050566770033107,1.290307856459109,0.9803647381730232,0.2845514375,0.7312542999939966
0.063,1.7007750000000001,1.0,2654.586076594331,0.5078329061141823,1.2896197306929467,0.9805384204736719,0.28448555,0.7325268226828605
0.0635,1.69919375,1.0,2652.3865746740526,0.5105935647948461,1.2889258947712674,0.9807080139988607,0.28441913750000003,0.7338068473553014
0.064,1.6976,1.0,2650.1959532305236,0.5133387433527965,1.2882263401783514,0.9808736337297264,0.2843522,0.7350943138628613
0.0645,1.69599375,1.0,2648.013338162445,0.5160684867862658,1.287521074889609,0.9810353880125705,0.2842847375,0.7363891310405734
0.065,1.694375,1.0,2645.8416179901715,0.5187829337836957,1.286810072156579,0.9811933862197589,0.28421675,0.7376912707574553
0.0655,1.69274375,1.0,2643.6811302702345,0.5214821719605174,1.2860933287479535,0.9813477313051501,0.2841482375,0.7390006608606998
0.066,1.6911,1.0,2641.5319305181442,0.5241662823495272,1.2853708440336749,0.9814985222106535,0.2840792,0.7403172237739414
0.0665,1.6894437500000001,1.0,2639.3940741997867,0.5268353459835218,1.2846426173836853,0.9816458543689901,0.2840096375,0.7416408812785871
0.067,1.687775,1.0,2637.267616732574,0.5294894438952972,1.2839086481679267,0.9817898198514587,0.28393955,0.7429715545135855
0.0675,1.68609375,1.0,2635.152613486934,0.5321286571176499,1.2831689357563414,0.9819305075084697,0.2838689375,0.7443091639751945
0.068,1.6844000000000001,1.0,2633.049119787768,0.5347530666833763,1.2824234795188711,0.982068003103239,0.2837978,0.7456536295167531
0.0685,1.68269375,1.0,2630.957190915442,0.5373627536252726,1.2816722788254582,0.9822023894390283,0.2837261375,0.7470048703484482
0.069,1.680975,1.0,2628.8768821076496,0.5399577989761355,1.2809153330460443,0.9823337464802804,0.28365395,0.7483628050370854
0.0695,1.67924375,1.0,2626.8082485604177,0.5425382837687611,1.280152641550572,0.9824621514679824,0.28358123749999997,0.749727351505857
0.07,1.6775,1.0,2624.751345429862,0.5451042890359458,1.2793842037089829,0.982587679029572,0.283508,0.7510984270341121
0.07050000000000001,1.67574375,1.0,2622.7062278332073,0.547655895810486,1.278610018891219,0.9827104012836768,0.2834342375,0.7524759482571255
0.07100000000000001,1.673975,1.0,2620.6729508504673,0.550193185125178,1.277830086467223,0.9828303879399624,0.28335995,0.7538598311658655
0.07150000000000001,1.67219375,1.0,2618.6515695258026,0.5527162380128183,1.2770444058069363,0.9829477063943524,0.2832851375,0.7552499911067653
0.07200000000000001,1.6704,1.0,2616.6421388690214,0.5552251355062032,1.2762529762803014,0.9830624218198596,0.2832098,0.7566463427814899
0.0725,1.66859375,1.0,2614.6447138568656,0.557719958638129,1.27545579725726,0.9831745972532594,0.2831339375,0.758048800246707
0.073,1.6667750000000001,1.0,2612.6593494346525,0.5602007884413921,1.2746528681077542,0.9832842936778238,0.28305755,0.7594572769138539
0.0735,1.66494375,1.0,2610.686100517581,0.5626677059487889,1.2738441882017264,0.9833915701023166,0.2829806375,0.7608716855489077
0.074,1.6631,1.0,2608.725440503692,0.5651207918488416,1.2730297530179453,0.9834964834443961,0.2829032,0.7622919450477035
0.0745,1.6612437500000001,1.0,2606.7779758834495,0.5675601203358667,1.2722095567912033,0.983599088376942,0.2828252375,0.7637179757383185
0.075,1.659375,1.0,2604.8417374346527,0.5699857663508131,1.271383617714398,0.9836994389266921,0.28274675,0.7651496557278237
0.0755,1.65749375,1.0,2602.916385947849,0.5723978062330595,1.2705519388359559,0.9837975868410692,0.2826677375,0.7665868890054375
